timestamp,pid,value,device_serial,device_number,entry_time
1552116814000.0000000000,19,0E-10,A01A3A,5,1552116814000
1552116814015.6201171875,19,0E-10,A01A3A,5,1552116814000
1552116814031.2500000000,19,0E-10,A01A3A,5,1552116814000
1552116814046.8798828125,19,0E-10,A01A3A,5,1552116814000
1552116814062.5000000000,19,0E-10,A01A3A,5,1552116814000
1552116814078.1201171875,19,0E-10,A01A3A,5,1552116814000
1552116814093.7500000000,19,0E-10,A01A3A,5,1552116814000
1552116814109.3798828125,19,0E-10,A01A3A,5,1552116814000
1552116814125.0000000000,19,0E-10,A01A3A,5,1552116814000
1552116814140.6201171875,19,0E-10,A01A3A,5,1552116814000
1552116814156.2500000000,19,0E-10,A01A3A,5,1552116814000
1552116814171.8798828125,19,0.0100000000,A01A3A,5,1552116814000
1552116814187.5000000000,19,0.0100000000,A01A3A,5,1552116814000
1552116814203.1201171875,19,0E-10,A01A3A,5,1552116814000
1552116814218.7500000000,19,-0.0300000000,A01A3A,5,1552116814000
1552116814234.3798828125,19,-0.0500000000,A01A3A,5,1552116814000
1552116814250.0000000000,19,-0.0500000000,A01A3A,5,1552116814000
1552116814265.6201171875,19,0E-10,A01A3A,5,1552116814000
1552116814281.2500000000,19,0.1300000000,A01A3A,5,1552116814000
1552116814296.8798828125,19,0.3600000000,A01A3A,5,1552116814000
1552116814312.5000000000,19,0.6600000000,A01A3A,5,1552116814000
1552116814328.1201171875,19,1.0100000000,A01A3A,5,1552116814000
1552116814343.7500000000,19,1.3700000000,A01A3A,5,1552116814000
1552116814359.3798828125,19,1.7200000000,A01A3A,5,1552116814000
1552116814375.0000000000,19,2.0600000000,A01A3A,5,1552116814000
1552116814390.6201171875,19,2.4000000000,A01A3A,5,1552116814000
1552116814406.2500000000,19,2.7900000000,A01A3A,5,1552116814000
1552116814421.8798828125,19,3.2400000000,A01A3A,5,1552116814000
1552116814437.5000000000,19,3.8000000000,A01A3A,5,1552116814000
1552116814453.1201171875,19,4.4200000000,A01A3A,5,1552116814000
1552116814468.7500000000,19,5.0600000000,A01A3A,5,1552116814000
1552116814484.3798828125,19,5.6600000000,A01A3A,5,1552116814000
1552116814500.0000000000,19,6.2000000000,A01A3A,5,1552116814000
1552116814515.6201171875,19,6.6800000000,A01A3A,5,1552116814000
1552116814531.2500000000,19,7.1500000000,A01A3A,5,1552116814000
1552116814546.8798828125,19,7.6800000000,A01A3A,5,1552116814000
1552116814562.5000000000,19,8.3100000000,A01A3A,5,1552116814000
1552116814578.1201171875,19,9.1400000000,A01A3A,5,1552116814000
1552116814593.7500000000,19,10.0900000000,A01A3A,5,1552116814000
1552116814609.3798828125,19,11.0400000000,A01A3A,5,1552116814000
1552116814625.0000000000,19,11.8800000000,A01A3A,5,1552116814000
1552116814640.6201171875,19,12.5600000000,A01A3A,5,1552116814000
1552116814656.2500000000,19,13.1400000000,A01A3A,5,1552116814000
1552116814671.8798828125,19,13.7600000000,A01A3A,5,1552116814000
1552116814687.5000000000,19,14.6500000000,A01A3A,5,1552116814000
1552116814703.1201171875,19,15.9600000000,A01A3A,5,1552116814000
1552116814718.7500000000,19,17.9100000000,A01A3A,5,1552116814000
1552116814734.3798828125,19,20.3200000000,A01A3A,5,1552116814000
1552116814750.0000000000,19,22.9000000000,A01A3A,5,1552116814000
1552116814765.6201171875,19,25.3800000000,A01A3A,5,1552116814000
1552116814781.2500000000,19,27.5800000000,A01A3A,5,1552116814000
1552116814796.8798828125,19,29.5700000000,A01A3A,5,1552116814000
1552116814812.5000000000,19,31.6800000000,A01A3A,5,1552116814000
1552116814828.1201171875,19,34.3200000000,A01A3A,5,1552116814000
1552116814843.7500000000,19,37.8100000000,A01A3A,5,1552116814000
1552116814859.3798828125,19,42.5400000000,A01A3A,5,1552116814000
1552116814875.0000000000,19,48.1500000000,A01A3A,5,1552116814000
1552116814890.6201171875,19,54.1000000000,A01A3A,5,1552116814000
1552116814906.2500000000,19,59.8300000000,A01A3A,5,1552116814000
1552116814921.8798828125,19,64.9700000000,A01A3A,5,1552116814000
1552116814937.5000000000,19,69.5800000000,A01A3A,5,1552116814000
1552116814953.1201171875,19,74.1400000000,A01A3A,5,1552116814000
1552116814968.7500000000,19,79.3400000000,A01A3A,5,1552116814000
1552116814984.3798828125,19,85.7100000000,A01A3A,5,1552116814000
1552116815000.0000000000,19,93.7600000000,A01A3A,5,1552116814000
1552116815015.6201171875,19,103.0000000000,A01A3A,5,1552116814000
1552116815031.2500000000,19,112.6200000000,A01A3A,5,1552116814000
1552116815046.8798828125,19,121.7300000000,A01A3A,5,1552116814000
1552116815062.5000000000,19,129.7700000000,A01A3A,5,1552116814000
1552116815078.1201171875,19,136.7500000000,A01A3A,5,1552116814000
1552116815093.7500000000,19,143.3000000000,A01A3A,5,1552116814000
1552116815109.3798828125,19,150.7500000000,A01A3A,5,1552116814000
1552116815125.0000000000,19,157.7700000000,A01A3A,5,1552116814000
1552116815140.6201171875,19,166.6400000000,A01A3A,5,1552116814000
1552116815156.2500000000,19,177.9500000000,A01A3A,5,1552116814000
1552116815171.8798828125,19,191.7900000000,A01A3A,5,1552116814000
1552116815187.5000000000,19,206.9700000000,A01A3A,5,1552116814000
1552116815203.1201171875,19,220.5700000000,A01A3A,5,1552116814000
1552116815218.7500000000,19,228.2500000000,A01A3A,5,1552116814000
1552116815234.3798828125,19,225.3600000000,A01A3A,5,1552116814000
1552116815250.0000000000,19,208.5300000000,A01A3A,5,1552116814000
1552116815265.6201171875,19,176.8700000000,A01A3A,5,1552116814000
1552116815281.2500000000,19,132.7600000000,A01A3A,5,1552116814000
1552116815296.8798828125,19,80.0500000000,A01A3A,5,1552116814000
1552116815312.5000000000,19,23.0700000000,A01A3A,5,1552116814000
1552116815328.1201171875,19,-34.9400000000,A01A3A,5,1552116814000
1552116815343.7500000000,19,-92.4400000000,A01A3A,5,1552116814000
1552116815359.3798828125,19,-149.1600000000,A01A3A,5,1552116814000
1552116815375.0000000000,19,-205.2300000000,A01A3A,5,1552116814000
1552116815390.6201171875,19,-260.3700000000,A01A3A,5,1552116814000
1552116815406.2500000000,19,-313.7400000000,A01A3A,5,1552116814000
1552116815421.8798828125,19,-363.8700000000,A01A3A,5,1552116814000
1552116815437.5000000000,19,-409.8300000000,A01A3A,5,1552116814000
1552116815453.1201171875,19,-450.9100000000,A01A3A,5,1552116814000
1552116815468.7500000000,19,-486.5000000000,A01A3A,5,1552116814000
1552116815484.3798828125,19,-515.7400000000,A01A3A,5,1552116814000
1552116815500.0000000000,19,-537.2300000000,A01A3A,5,1552116814000
1552116815515.6201171875,19,-549.2200000000,A01A3A,5,1552116814000
1552116815531.2500000000,19,-549.9600000000,A01A3A,5,1552116814000
1552116815546.8798828125,19,-538.3700000000,A01A3A,5,1552116814000
1552116815562.5000000000,19,-514.2100000000,A01A3A,5,1552116814000
1552116815578.1201171875,19,-478.6700000000,A01A3A,5,1552116814000
1552116815593.7500000000,19,-433.8800000000,A01A3A,5,1552116814000
1552116815609.3798828125,19,-382.4500000000,A01A3A,5,1552116814000
1552116815625.0000000000,19,-327.0200000000,A01A3A,5,1552116814000
1552116815640.6201171875,19,-269.8400000000,A01A3A,5,1552116814000
1552116815656.2500000000,19,-212.6300000000,A01A3A,5,1552116814000
1552116815671.8798828125,19,-156.6600000000,A01A3A,5,1552116814000
1552116815687.5000000000,19,-102.9500000000,A01A3A,5,1552116814000
1552116815703.1201171875,19,-52.3700000000,A01A3A,5,1552116814000
1552116815718.7500000000,19,-5.9000000000,A01A3A,5,1552116814000
1552116815734.3798828125,19,35.5800000000,A01A3A,5,1552116814000
1552116815750.0000000000,19,71.4300000000,A01A3A,5,1552116814000
1552116815765.6201171875,19,101.3500000000,A01A3A,5,1552116814000
1552116815781.2500000000,19,125.5000000000,A01A3A,5,1552116814000
1552116815796.8798828125,19,144.3800000000,A01A3A,5,1552116814000
1552116815812.5000000000,19,158.6900000000,A01A3A,5,1552116814000
1552116815828.1201171875,19,169.1500000000,A01A3A,5,1552116814000
1552116815843.7500000000,19,176.3700000000,A01A3A,5,1552116814000
1552116815859.3798828125,19,180.7500000000,A01A3A,5,1552116814000
1552116815875.0000000000,19,182.5700000000,A01A3A,5,1552116814000
1552116815890.6201171875,19,182.0700000000,A01A3A,5,1552116814000
1552116815906.2500000000,19,179.5100000000,A01A3A,5,1552116814000
1552116815921.8798828125,19,175.2300000000,A01A3A,5,1552116814000
1552116815937.5000000000,19,169.6500000000,A01A3A,5,1552116814000
1552116815953.1201171875,19,163.1800000000,A01A3A,5,1552116814000
1552116815968.7500000000,19,156.1500000000,A01A3A,5,1552116814000
1552116815984.3798828125,19,148.8100000000,A01A3A,5,1552116814000
1552116816000.0000000000,19,141.3000000000,A01A3A,5,1552116814000
1552116816015.6201171875,19,133.6900000000,A01A3A,5,1552116814000
1552116816031.2500000000,19,126.0200000000,A01A3A,5,1552116814000
1552116816046.8798828125,19,118.3300000000,A01A3A,5,1552116814000
1552116816062.5000000000,19,110.6900000000,A01A3A,5,1552116814000
1552116816078.1201171875,19,103.1600000000,A01A3A,5,1552116814000
1552116816093.7500000000,19,95.8000000000,A01A3A,5,1552116814000
1552116816109.3798828125,19,88.6800000000,A01A3A,5,1552116814000
1552116816125.0000000000,19,81.8300000000,A01A3A,5,1552116814000
1552116816140.6201171875,19,75.2500000000,A01A3A,5,1552116814000
1552116816156.2500000000,19,68.9500000000,A01A3A,5,1552116814000
1552116816171.8798828125,19,62.9500000000,A01A3A,5,1552116814000
1552116816187.5000000000,19,57.2500000000,A01A3A,5,1552116814000
1552116816203.1201171875,19,51.8600000000,A01A3A,5,1552116814000
1552116816218.7500000000,19,46.7800000000,A01A3A,5,1552116814000
1552116816234.3798828125,19,42.0300000000,A01A3A,5,1552116814000
1552116816250.0000000000,19,37.5900000000,A01A3A,5,1552116814000
1552116816265.6201171875,19,33.4500000000,A01A3A,5,1552116814000
1552116816281.2500000000,19,29.6100000000,A01A3A,5,1552116814000
1552116816296.8798828125,19,26.0700000000,A01A3A,5,1552116814000
1552116816312.5000000000,19,22.8100000000,A01A3A,5,1552116814000
1552116816328.1201171875,19,19.8300000000,A01A3A,5,1552116814000
1552116816343.7500000000,19,17.1100000000,A01A3A,5,1552116814000
1552116816359.3798828125,19,14.6700000000,A01A3A,5,1552116814000
1552116816375.0000000000,19,12.4800000000,A01A3A,5,1552116814000
1552116816390.6201171875,19,10.5400000000,A01A3A,5,1552116814000
1552116816406.2500000000,19,8.8300000000,A01A3A,5,1552116814000
1552116816421.8798828125,19,7.3500000000,A01A3A,5,1552116814000
1552116816437.5000000000,19,6.0700000000,A01A3A,5,1552116814000
1552116816453.1201171875,19,4.9700000000,A01A3A,5,1552116814000
1552116816468.7500000000,19,4.0500000000,A01A3A,5,1552116814000
1552116816484.3798828125,19,3.2700000000,A01A3A,5,1552116814000
1552116816500.0000000000,19,2.6200000000,A01A3A,5,1552116814000
1552116816515.6201171875,19,2.0900000000,A01A3A,5,1552116814000
1552116816531.2500000000,19,1.6500000000,A01A3A,5,1552116814000
1552116816546.8798828125,19,1.3000000000,A01A3A,5,1552116814000
1552116816562.5000000000,19,1.0100000000,A01A3A,5,1552116814000
1552116816578.1201171875,19,0.7900000000,A01A3A,5,1552116814000
1552116816593.7500000000,19,0.6100000000,A01A3A,5,1552116814000
1552116816609.3798828125,19,0.4800000000,A01A3A,5,1552116814000
1552116816625.0000000000,19,0.3700000000,A01A3A,5,1552116814000
1552116816640.6201171875,19,0.2900000000,A01A3A,5,1552116814000
1552116816656.2500000000,19,0.2400000000,A01A3A,5,1552116814000
1552116816671.8798828125,19,0.2000000000,A01A3A,5,1552116814000
1552116816687.5000000000,19,0.1800000000,A01A3A,5,1552116814000
1552116816703.1201171875,19,0.1600000000,A01A3A,5,1552116814000
1552116816718.7500000000,19,0.1600000000,A01A3A,5,1552116814000
1552116816734.3798828125,19,0.1700000000,A01A3A,5,1552116814000
1552116816750.0000000000,19,0.1800000000,A01A3A,5,1552116814000
1552116816765.6201171875,19,0.2000000000,A01A3A,5,1552116814000
1552116816781.2500000000,19,0.2200000000,A01A3A,5,1552116814000
1552116816796.8798828125,19,0.2500000000,A01A3A,5,1552116814000
1552116816812.5000000000,19,0.2800000000,A01A3A,5,1552116814000
1552116816828.1201171875,19,0.3200000000,A01A3A,5,1552116814000
1552116816843.7500000000,19,0.3500000000,A01A3A,5,1552116814000
1552116816859.3798828125,19,0.3800000000,A01A3A,5,1552116814000
1552116816875.0000000000,19,0.4300000000,A01A3A,5,1552116814000
1552116816890.6201171875,19,0.4700000000,A01A3A,5,1552116814000
1552116816906.2500000000,19,0.5100000000,A01A3A,5,1552116814000
1552116816921.8798828125,19,0.5600000000,A01A3A,5,1552116814000
1552116816937.5000000000,19,0.6100000000,A01A3A,5,1552116814000
1552116816953.1201171875,19,0.6700000000,A01A3A,5,1552116814000
1552116816968.7500000000,19,0.7300000000,A01A3A,5,1552116814000
1552116816984.3798828125,19,0.8000000000,A01A3A,5,1552116814000
1552116817000.0000000000,19,0.8700000000,A01A3A,5,1552116814000
1552116817015.6201171875,19,0.9600000000,A01A3A,5,1552116814000
1552116817031.2500000000,19,1.0500000000,A01A3A,5,1552116814000
1552116817046.8798828125,19,1.1500000000,A01A3A,5,1552116814000
1552116817062.5000000000,19,1.2700000000,A01A3A,5,1552116814000
1552116817078.1201171875,19,1.4000000000,A01A3A,5,1552116814000
1552116817093.7500000000,19,1.5400000000,A01A3A,5,1552116814000
1552116817109.3798828125,19,1.6900000000,A01A3A,5,1552116814000
1552116817125.0000000000,19,1.8600000000,A01A3A,5,1552116814000
1552116817140.6201171875,19,2.0500000000,A01A3A,5,1552116814000
1552116817156.2500000000,19,2.2600000000,A01A3A,5,1552116814000
1552116817171.8798828125,19,2.4900000000,A01A3A,5,1552116814000
1552116817187.5000000000,19,2.7400000000,A01A3A,5,1552116814000
1552116817203.1201171875,19,3.0200000000,A01A3A,5,1552116814000
1552116817218.7500000000,19,3.3300000000,A01A3A,5,1552116814000
1552116817234.3798828125,19,3.6600000000,A01A3A,5,1552116814000
1552116817250.0000000000,19,4.0300000000,A01A3A,5,1552116814000
1552116817265.6201171875,19,4.4200000000,A01A3A,5,1552116814000
1552116817281.2500000000,19,4.8500000000,A01A3A,5,1552116814000
1552116817296.8798828125,19,5.3000000000,A01A3A,5,1552116814000
1552116817312.5000000000,19,5.7900000000,A01A3A,5,1552116814000
1552116817328.1201171875,19,6.3200000000,A01A3A,5,1552116814000
1552116817343.7500000000,19,6.8900000000,A01A3A,5,1552116814000
1552116817359.3798828125,19,7.4900000000,A01A3A,5,1552116814000
1552116817375.0000000000,19,8.1300000000,A01A3A,5,1552116814000
1552116817390.6201171875,19,8.8200000000,A01A3A,5,1552116814000
1552116817406.2500000000,19,9.5500000000,A01A3A,5,1552116814000
1552116817421.8798828125,19,10.3200000000,A01A3A,5,1552116814000
1552116817437.5000000000,19,11.1400000000,A01A3A,5,1552116814000
1552116817453.1201171875,19,12.0000000000,A01A3A,5,1552116814000
1552116817468.7500000000,19,12.9400000000,A01A3A,5,1552116814000
1552116817484.3798828125,19,13.9300000000,A01A3A,5,1552116814000
1552116817500.0000000000,19,14.9800000000,A01A3A,5,1552116814000
1552116817515.6201171875,19,16.0700000000,A01A3A,5,1552116814000
1552116817531.2500000000,19,17.2100000000,A01A3A,5,1552116814000
1552116817546.8798828125,19,18.3300000000,A01A3A,5,1552116814000
1552116817562.5000000000,19,19.4100000000,A01A3A,5,1552116814000
1552116817578.1201171875,19,20.3700000000,A01A3A,5,1552116814000
1552116817593.7500000000,19,21.1400000000,A01A3A,5,1552116814000
1552116817609.3798828125,19,21.6300000000,A01A3A,5,1552116814000
1552116817625.0000000000,19,21.7600000000,A01A3A,5,1552116814000
1552116817640.6201171875,19,21.4700000000,A01A3A,5,1552116814000
1552116817656.2500000000,19,20.6900000000,A01A3A,5,1552116814000
1552116817671.8798828125,19,19.4300000000,A01A3A,5,1552116814000
1552116817687.5000000000,19,17.6700000000,A01A3A,5,1552116814000
1552116817703.1201171875,19,15.4800000000,A01A3A,5,1552116814000
1552116817718.7500000000,19,12.9500000000,A01A3A,5,1552116814000
1552116817734.3798828125,19,10.1400000000,A01A3A,5,1552116814000
1552116817750.0000000000,19,7.2200000000,A01A3A,5,1552116814000
1552116817765.6201171875,19,4.3100000000,A01A3A,5,1552116814000
1552116817781.2500000000,19,1.5300000000,A01A3A,5,1552116814000
1552116817796.8798828125,19,-1.0000000000,A01A3A,5,1552116814000
1552116817812.5000000000,19,-3.1900000000,A01A3A,5,1552116814000
1552116817828.1201171875,19,-5.0000000000,A01A3A,5,1552116814000
1552116817843.7500000000,19,-6.4100000000,A01A3A,5,1552116814000
1552116817859.3798828125,19,-7.4200000000,A01A3A,5,1552116814000
1552116817875.0000000000,19,-8.0900000000,A01A3A,5,1552116814000
1552116817890.6201171875,19,-8.4500000000,A01A3A,5,1552116814000
1552116817906.2500000000,19,-8.6000000000,A01A3A,5,1552116814000
1552116817921.8798828125,19,-8.6300000000,A01A3A,5,1552116814000
1552116817937.5000000000,19,-8.6200000000,A01A3A,5,1552116814000
1552116817953.1201171875,19,-8.6100000000,A01A3A,5,1552116814000
1552116817968.7500000000,19,-8.6300000000,A01A3A,5,1552116814000
1552116817984.3798828125,19,-8.6700000000,A01A3A,5,1552116814000
1552116818000.0000000000,19,-8.6700000000,A01A3A,5,1552116814000
1552116818015.6201171875,19,-8.5800000000,A01A3A,5,1552116814000
1552116818031.2500000000,19,-8.2800000000,A01A3A,5,1552116814000
1552116818046.8798828125,19,-7.7600000000,A01A3A,5,1552116814000
1552116818062.5000000000,19,-6.9900000000,A01A3A,5,1552116814000
1552116818078.1201171875,19,-5.9700000000,A01A3A,5,1552116814000
1552116818093.7500000000,19,-4.7100000000,A01A3A,5,1552116814000
1552116818109.3798828125,19,-3.2500000000,A01A3A,5,1552116814000
1552116818125.0000000000,19,-1.6200000000,A01A3A,5,1552116814000
1552116818140.6201171875,19,0.1700000000,A01A3A,5,1552116814000
1552116818156.2500000000,19,2.1500000000,A01A3A,5,1552116814000
1552116818171.8798828125,19,4.3700000000,A01A3A,5,1552116814000
1552116818187.5000000000,19,6.7400000000,A01A3A,5,1552116814000
1552116818203.1201171875,19,9.2100000000,A01A3A,5,1552116814000
1552116818218.7500000000,19,11.7700000000,A01A3A,5,1552116814000
1552116818234.3798828125,19,14.4500000000,A01A3A,5,1552116814000
1552116818250.0000000000,19,17.3100000000,A01A3A,5,1552116814000
1552116818265.6201171875,19,20.4600000000,A01A3A,5,1552116814000
1552116818281.2500000000,19,24.0300000000,A01A3A,5,1552116814000
1552116818296.8798828125,19,28.2000000000,A01A3A,5,1552116814000
1552116818312.5000000000,19,33.1800000000,A01A3A,5,1552116814000
1552116818328.1201171875,19,38.7200000000,A01A3A,5,1552116814000
1552116818343.7500000000,19,44.6500000000,A01A3A,5,1552116814000
1552116818359.3798828125,19,50.7600000000,A01A3A,5,1552116814000
1552116818375.0000000000,19,56.8500000000,A01A3A,5,1552116814000
1552116818390.6201171875,19,62.7500000000,A01A3A,5,1552116814000
1552116818406.2500000000,19,68.3900000000,A01A3A,5,1552116814000
1552116818421.8798828125,19,73.8500000000,A01A3A,5,1552116814000
1552116818437.5000000000,19,79.3100000000,A01A3A,5,1552116814000
1552116818453.1201171875,19,85.1000000000,A01A3A,5,1552116814000
1552116818468.7500000000,19,90.9400000000,A01A3A,5,1552116814000
1552116818484.3798828125,19,96.5900000000,A01A3A,5,1552116814000
1552116818500.0000000000,19,101.8600000000,A01A3A,5,1552116814000
1552116818515.6201171875,19,106.5400000000,A01A3A,5,1552116814000
1552116818531.2500000000,19,110.5200000000,A01A3A,5,1552116814000
1552116818546.8798828125,19,113.8800000000,A01A3A,5,1552116814000
1552116818562.5000000000,19,116.9200000000,A01A3A,5,1552116814000
1552116818578.1201171875,19,120.1000000000,A01A3A,5,1552116814000
1552116818593.7500000000,19,123.9400000000,A01A3A,5,1552116814000
1552116818609.3798828125,19,128.0600000000,A01A3A,5,1552116814000
1552116818625.0000000000,19,131.9700000000,A01A3A,5,1552116814000
1552116818640.6201171875,19,134.9800000000,A01A3A,5,1552116814000
1552116818656.2500000000,19,136.2900000000,A01A3A,5,1552116814000
1552116818671.8798828125,19,135.1100000000,A01A3A,5,1552116814000
1552116818687.5000000000,19,130.7700000000,A01A3A,5,1552116814000
1552116818703.1201171875,19,122.5700000000,A01A3A,5,1552116814000
1552116818718.7500000000,19,109.3700000000,A01A3A,5,1552116814000
1552116818734.3798828125,19,94.6800000000,A01A3A,5,1552116814000
1552116818750.0000000000,19,79.4400000000,A01A3A,5,1552116814000
1552116818765.6201171875,19,63.8600000000,A01A3A,5,1552116814000
1552116818781.2500000000,19,47.5800000000,A01A3A,5,1552116814000
1552116818796.8798828125,19,30.0400000000,A01A3A,5,1552116814000
1552116818812.5000000000,19,10.8100000000,A01A3A,5,1552116814000
1552116818828.1201171875,19,-10.0100000000,A01A3A,5,1552116814000
1552116818843.7500000000,19,-31.8200000000,A01A3A,5,1552116814000
1552116818859.3798828125,19,-53.5800000000,A01A3A,5,1552116814000
1552116818875.0000000000,19,-74.1500000000,A01A3A,5,1552116814000
1552116818890.6201171875,19,-93.5000000000,A01A3A,5,1552116814000
1552116818906.2500000000,19,-111.8600000000,A01A3A,5,1552116814000
1552116818921.8798828125,19,-129.8600000000,A01A3A,5,1552116814000
1552116818937.5000000000,19,-148.5000000000,A01A3A,5,1552116814000
1552116818953.1201171875,19,-168.9900000000,A01A3A,5,1552116814000
1552116818968.7500000000,19,-192.4500000000,A01A3A,5,1552116814000
1552116818984.3798828125,19,-219.4900000000,A01A3A,5,1552116814000
1552116819000.0000000000,19,-249.5100000000,A01A3A,5,1552116814000
1552116819015.6201171875,19,-280.1300000000,A01A3A,5,1552116814000
1552116819031.2500000000,19,-307.8200000000,A01A3A,5,1552116814000
1552116819046.8798828125,19,-327.8600000000,A01A3A,5,1552116814000
1552116819062.5000000000,19,-335.9400000000,A01A3A,5,1552116814000
1552116819078.1201171875,19,-329.7200000000,A01A3A,5,1552116814000
1552116819093.7500000000,19,-309.7900000000,A01A3A,5,1552116814000
1552116819109.3798828125,19,-279.4200000000,A01A3A,5,1552116814000
1552116819125.0000000000,19,-243.3800000000,A01A3A,5,1552116814000
1552116819140.6201171875,19,-206.2300000000,A01A3A,5,1552116814000
1552116819156.2500000000,19,-171.1300000000,A01A3A,5,1552116814000
1552116819171.8798828125,19,-139.9100000000,A01A3A,5,1552116814000
1552116819187.5000000000,19,-113.0800000000,A01A3A,5,1552116814000
1552116819203.1201171875,19,-90.7200000000,A01A3A,5,1552116814000
1552116819218.7500000000,19,-72.8900000000,A01A3A,5,1552116814000
1552116819234.3798828125,19,-59.7100000000,A01A3A,5,1552116814000
1552116819250.0000000000,19,-50.9100000000,A01A3A,5,1552116814000
1552116819265.6201171875,19,-45.5900000000,A01A3A,5,1552116814000
1552116819281.2500000000,19,-42.2100000000,A01A3A,5,1552116814000
1552116819296.8798828125,19,-39.0500000000,A01A3A,5,1552116814000
1552116819312.5000000000,19,-34.8700000000,A01A3A,5,1552116814000
1552116819328.1201171875,19,-29.0500000000,A01A3A,5,1552116814000
1552116819343.7500000000,19,-21.7900000000,A01A3A,5,1552116814000
1552116819359.3798828125,19,-13.8300000000,A01A3A,5,1552116814000
1552116819375.0000000000,19,-6.1000000000,A01A3A,5,1552116814000
1552116819390.6201171875,19,0.6400000000,A01A3A,5,1552116814000
1552116819406.2500000000,19,6.0500000000,A01A3A,5,1552116814000
1552116819421.8798828125,19,10.3100000000,A01A3A,5,1552116814000
1552116819437.5000000000,19,13.9100000000,A01A3A,5,1552116814000
1552116819453.1201171875,19,17.2400000000,A01A3A,5,1552116814000
1552116819468.7500000000,19,20.4600000000,A01A3A,5,1552116814000
1552116819484.3798828125,19,23.2900000000,A01A3A,5,1552116814000
1552116819500.0000000000,19,25.2200000000,A01A3A,5,1552116814000
1552116819515.6201171875,19,25.6900000000,A01A3A,5,1552116814000
1552116819531.2500000000,19,24.3600000000,A01A3A,5,1552116814000
1552116819546.8798828125,19,21.2200000000,A01A3A,5,1552116814000
1552116819562.5000000000,19,16.6300000000,A01A3A,5,1552116814000
1552116819578.1201171875,19,11.1600000000,A01A3A,5,1552116814000
1552116819593.7500000000,19,5.6000000000,A01A3A,5,1552116814000
1552116819609.3798828125,19,0.9000000000,A01A3A,5,1552116814000
1552116819625.0000000000,19,-1.8700000000,A01A3A,5,1552116814000
1552116819640.6201171875,19,-1.7000000000,A01A3A,5,1552116814000
1552116819656.2500000000,19,1.9700000000,A01A3A,5,1552116814000
1552116819671.8798828125,19,9.0700000000,A01A3A,5,1552116814000
1552116819687.5000000000,19,18.7300000000,A01A3A,5,1552116814000
1552116819703.1201171875,19,29.5300000000,A01A3A,5,1552116814000
1552116819718.7500000000,19,39.9200000000,A01A3A,5,1552116814000
1552116819734.3798828125,19,48.6000000000,A01A3A,5,1552116814000
1552116819750.0000000000,19,54.8300000000,A01A3A,5,1552116814000
1552116819765.6201171875,19,58.3100000000,A01A3A,5,1552116814000
1552116819781.2500000000,19,59.0500000000,A01A3A,5,1552116814000
1552116819796.8798828125,19,57.1300000000,A01A3A,5,1552116814000
1552116819812.5000000000,19,52.7700000000,A01A3A,5,1552116814000
1552116819828.1201171875,19,46.4100000000,A01A3A,5,1552116814000
1552116819843.7500000000,19,38.8400000000,A01A3A,5,1552116814000
1552116819859.3798828125,19,31.1600000000,A01A3A,5,1552116814000
1552116819875.0000000000,19,24.5300000000,A01A3A,5,1552116814000
1552116819890.6201171875,19,19.7600000000,A01A3A,5,1552116814000
1552116819906.2500000000,19,17.1200000000,A01A3A,5,1552116814000
1552116819921.8798828125,19,16.2200000000,A01A3A,5,1552116814000
1552116819937.5000000000,19,16.3100000000,A01A3A,5,1552116814000
1552116819953.1201171875,19,16.6100000000,A01A3A,5,1552116814000
1552116819968.7500000000,19,16.6200000000,A01A3A,5,1552116814000
1552116819984.3798828125,19,16.2200000000,A01A3A,5,1552116814000
1552116820000.0000000000,19,15.5300000000,A01A3A,5,1552116814000
1552116820015.6201171875,19,14.7300000000,A01A3A,5,1552116814000
1552116820031.2500000000,19,13.8100000000,A01A3A,5,1552116814000
1552116820046.8798828125,19,12.5000000000,A01A3A,5,1552116814000
1552116820062.5000000000,19,10.3500000000,A01A3A,5,1552116814000
1552116820078.1201171875,19,6.9400000000,A01A3A,5,1552116814000
1552116820093.7500000000,19,2.0500000000,A01A3A,5,1552116814000
1552116820109.3798828125,19,-4.2300000000,A01A3A,5,1552116814000
1552116820125.0000000000,19,-11.3600000000,A01A3A,5,1552116814000
1552116820140.6201171875,19,-18.4100000000,A01A3A,5,1552116814000
1552116820156.2500000000,19,-24.1000000000,A01A3A,5,1552116814000
1552116820171.8798828125,19,-27.1000000000,A01A3A,5,1552116814000
1552116820187.5000000000,19,-26.3300000000,A01A3A,5,1552116814000
1552116820203.1201171875,19,-21.3300000000,A01A3A,5,1552116814000
1552116820218.7500000000,19,-12.5800000000,A01A3A,5,1552116814000
1552116820234.3798828125,19,-1.4100000000,A01A3A,5,1552116814000
1552116820250.0000000000,19,10.3000000000,A01A3A,5,1552116814000
1552116820265.6201171875,19,20.6500000000,A01A3A,5,1552116814000
1552116820281.2500000000,19,28.3000000000,A01A3A,5,1552116814000
1552116820296.8798828125,19,32.7500000000,A01A3A,5,1552116814000
1552116820312.5000000000,19,34.2600000000,A01A3A,5,1552116814000
1552116820328.1201171875,19,33.5400000000,A01A3A,5,1552116814000
1552116820343.7500000000,19,31.3600000000,A01A3A,5,1552116814000
1552116820359.3798828125,19,28.2300000000,A01A3A,5,1552116814000
1552116820375.0000000000,19,24.5000000000,A01A3A,5,1552116814000
1552116820390.6201171875,19,20.4000000000,A01A3A,5,1552116814000
1552116820406.2500000000,19,16.3300000000,A01A3A,5,1552116814000
1552116820421.8798828125,19,12.7900000000,A01A3A,5,1552116814000
1552116820437.5000000000,19,10.3200000000,A01A3A,5,1552116814000
1552116820453.1201171875,19,9.3000000000,A01A3A,5,1552116814000
1552116820468.7500000000,19,9.7700000000,A01A3A,5,1552116814000
1552116820484.3798828125,19,11.5200000000,A01A3A,5,1552116814000
1552116820500.0000000000,19,14.2400000000,A01A3A,5,1552116814000
1552116820515.6201171875,19,17.7500000000,A01A3A,5,1552116814000
1552116820531.2500000000,19,22.0500000000,A01A3A,5,1552116814000
1552116820546.8798828125,19,27.1700000000,A01A3A,5,1552116814000
1552116820562.5000000000,19,32.8000000000,A01A3A,5,1552116814000
1552116820578.1201171875,19,38.1000000000,A01A3A,5,1552116814000
1552116820593.7500000000,19,41.7600000000,A01A3A,5,1552116814000
1552116820609.3798828125,19,42.3800000000,A01A3A,5,1552116814000
1552116820625.0000000000,19,39.0700000000,A01A3A,5,1552116814000
1552116820640.6201171875,19,31.9200000000,A01A3A,5,1552116814000
1552116820656.2500000000,19,22.0800000000,A01A3A,5,1552116814000
1552116820671.8798828125,19,11.4200000000,A01A3A,5,1552116814000
1552116820687.5000000000,19,1.9100000000,A01A3A,5,1552116814000
1552116820703.1201171875,19,-4.9000000000,A01A3A,5,1552116814000
1552116820718.7500000000,19,-8.2900000000,A01A3A,5,1552116814000
1552116820734.3798828125,19,-8.2900000000,A01A3A,5,1552116814000
1552116820750.0000000000,19,-5.5200000000,A01A3A,5,1552116814000
1552116820765.6201171875,19,-0.8000000000,A01A3A,5,1552116814000
1552116820781.2500000000,19,5.0100000000,A01A3A,5,1552116814000
1552116820796.8798828125,19,11.1500000000,A01A3A,5,1552116814000
1552116820812.5000000000,19,16.9300000000,A01A3A,5,1552116814000
1552116820828.1201171875,19,21.7100000000,A01A3A,5,1552116814000
1552116820843.7500000000,19,24.8800000000,A01A3A,5,1552116814000
1552116820859.3798828125,19,25.9000000000,A01A3A,5,1552116814000
1552116820875.0000000000,19,24.4300000000,A01A3A,5,1552116814000
1552116820890.6201171875,19,20.3800000000,A01A3A,5,1552116814000
1552116820906.2500000000,19,14.0700000000,A01A3A,5,1552116814000
1552116820921.8798828125,19,6.2600000000,A01A3A,5,1552116814000
1552116820937.5000000000,19,-1.9200000000,A01A3A,5,1552116814000
1552116820953.1201171875,19,-9.1200000000,A01A3A,5,1552116814000
1552116820968.7500000000,19,-13.9900000000,A01A3A,5,1552116814000
1552116820984.3798828125,19,-15.4300000000,A01A3A,5,1552116814000
1552116821000.0000000000,19,-12.8900000000,A01A3A,5,1552116814000
1552116821015.6201171875,19,-6.5900000000,A01A3A,5,1552116814000
1552116821031.2500000000,19,2.4300000000,A01A3A,5,1552116814000
1552116821046.8798828125,19,12.4800000000,A01A3A,5,1552116814000
1552116821062.5000000000,19,21.6500000000,A01A3A,5,1552116814000
1552116821078.1201171875,19,28.3800000000,A01A3A,5,1552116814000
1552116821093.7500000000,19,31.9000000000,A01A3A,5,1552116814000
1552116821109.3798828125,19,32.3200000000,A01A3A,5,1552116814000
1552116821125.0000000000,19,30.4000000000,A01A3A,5,1552116814000
1552116821140.6201171875,19,27.0300000000,A01A3A,5,1552116814000
1552116821156.2500000000,19,22.8100000000,A01A3A,5,1552116814000
1552116821171.8798828125,19,17.9000000000,A01A3A,5,1552116814000
1552116821187.5000000000,19,12.1800000000,A01A3A,5,1552116814000
1552116821203.1201171875,19,5.7200000000,A01A3A,5,1552116814000
1552116821218.7500000000,19,-0.9600000000,A01A3A,5,1552116814000
1552116821234.3798828125,19,-6.7800000000,A01A3A,5,1552116814000
1552116821250.0000000000,19,-10.4800000000,A01A3A,5,1552116814000
1552116821265.6201171875,19,-11.1200000000,A01A3A,5,1552116814000
1552116821281.2500000000,19,-8.5200000000,A01A3A,5,1552116814000
1552116821296.8798828125,19,-3.4100000000,A01A3A,5,1552116814000
1552116821312.5000000000,19,2.9200000000,A01A3A,5,1552116814000
1552116821328.1201171875,19,9.1300000000,A01A3A,5,1552116814000
1552116821343.7500000000,19,14.3800000000,A01A3A,5,1552116814000
1552116821359.3798828125,19,18.5800000000,A01A3A,5,1552116814000
1552116821375.0000000000,19,22.2400000000,A01A3A,5,1552116814000
1552116821390.6201171875,19,26.1700000000,A01A3A,5,1552116814000
1552116821406.2500000000,19,31.0200000000,A01A3A,5,1552116814000
1552116821421.8798828125,19,37.1200000000,A01A3A,5,1552116814000
1552116821437.5000000000,19,44.2900000000,A01A3A,5,1552116814000
1552116821453.1201171875,19,51.8700000000,A01A3A,5,1552116814000
1552116821468.7500000000,19,58.7000000000,A01A3A,5,1552116814000
1552116821484.3798828125,19,63.2800000000,A01A3A,5,1552116814000
1552116821500.0000000000,19,64.0900000000,A01A3A,5,1552116814000
1552116821515.6201171875,19,60.0300000000,A01A3A,5,1552116814000
1552116821531.2500000000,19,50.9500000000,A01A3A,5,1552116814000
1552116821546.8798828125,19,37.8300000000,A01A3A,5,1552116814000
1552116821562.5000000000,19,22.6000000000,A01A3A,5,1552116814000
1552116821578.1201171875,19,7.5200000000,A01A3A,5,1552116814000
1552116821593.7500000000,19,-5.5000000000,A01A3A,5,1552116814000
1552116821609.3798828125,19,-15.3300000000,A01A3A,5,1552116814000
1552116821625.0000000000,19,-21.7600000000,A01A3A,5,1552116814000
1552116821640.6201171875,19,-25.2200000000,A01A3A,5,1552116814000
1552116821656.2500000000,19,-26.4600000000,A01A3A,5,1552116814000
1552116821671.8798828125,19,-26.3300000000,A01A3A,5,1552116814000
1552116821687.5000000000,19,-25.6800000000,A01A3A,5,1552116814000
1552116821703.1201171875,19,-25.3100000000,A01A3A,5,1552116814000
1552116821718.7500000000,19,-26.0100000000,A01A3A,5,1552116814000
1552116821734.3798828125,19,-28.3800000000,A01A3A,5,1552116814000
1552116821750.0000000000,19,-32.7100000000,A01A3A,5,1552116814000
1552116821765.6201171875,19,-38.8400000000,A01A3A,5,1552116814000
1552116821781.2500000000,19,-46.0700000000,A01A3A,5,1552116814000
1552116821796.8798828125,19,-53.1300000000,A01A3A,5,1552116814000
1552116821812.5000000000,19,-58.3400000000,A01A3A,5,1552116814000
1552116821828.1201171875,19,-59.9800000000,A01A3A,5,1552116814000
1552116821843.7500000000,19,-56.9200000000,A01A3A,5,1552116814000
1552116821859.3798828125,19,-49.0800000000,A01A3A,5,1552116814000
1552116821875.0000000000,19,-37.6900000000,A01A3A,5,1552116814000
1552116821890.6201171875,19,-24.9900000000,A01A3A,5,1552116814000
1552116821906.2500000000,19,-13.5700000000,A01A3A,5,1552116814000
1552116821921.8798828125,19,-5.4700000000,A01A3A,5,1552116814000
1552116821937.5000000000,19,-1.6500000000,A01A3A,5,1552116814000
1552116821953.1201171875,19,-1.8200000000,A01A3A,5,1552116814000
1552116821968.7500000000,19,-4.8200000000,A01A3A,5,1552116814000
1552116821984.3798828125,19,-9.1800000000,A01A3A,5,1552116814000
1552116822000.0000000000,19,-13.6400000000,A01A3A,5,1552116814000
1552116822015.6201171875,19,-17.4100000000,A01A3A,5,1552116814000
1552116822031.2500000000,19,-20.0500000000,A01A3A,5,1552116814000
1552116822046.8798828125,19,-21.4100000000,A01A3A,5,1552116814000
1552116822062.5000000000,19,-21.2400000000,A01A3A,5,1552116814000
1552116822078.1201171875,19,-19.2800000000,A01A3A,5,1552116814000
1552116822093.7500000000,19,-15.3000000000,A01A3A,5,1552116814000
1552116822109.3798828125,19,-9.3100000000,A01A3A,5,1552116814000
1552116822125.0000000000,19,-1.7900000000,A01A3A,5,1552116814000
1552116822140.6201171875,19,6.3800000000,A01A3A,5,1552116814000
1552116822156.2500000000,19,14.1000000000,A01A3A,5,1552116814000
1552116822171.8798828125,19,20.4800000000,A01A3A,5,1552116814000
1552116822187.5000000000,19,25.1400000000,A01A3A,5,1552116814000
1552116822203.1201171875,19,28.2500000000,A01A3A,5,1552116814000
1552116822218.7500000000,19,30.2600000000,A01A3A,5,1552116814000
1552116822234.3798828125,19,31.5200000000,A01A3A,5,1552116814000
1552116822250.0000000000,19,31.9700000000,A01A3A,5,1552116814000
1552116822265.6201171875,19,31.1100000000,A01A3A,5,1552116814000
1552116822281.2500000000,19,28.3300000000,A01A3A,5,1552116814000
1552116822296.8798828125,19,23.3300000000,A01A3A,5,1552116814000
1552116822312.5000000000,19,16.2900000000,A01A3A,5,1552116814000
1552116822328.1201171875,19,7.9300000000,A01A3A,5,1552116814000
1552116822343.7500000000,19,-0.7600000000,A01A3A,5,1552116814000
1552116822359.3798828125,19,-8.6900000000,A01A3A,5,1552116814000
1552116822375.0000000000,19,-14.8000000000,A01A3A,5,1552116814000
1552116822390.6201171875,19,-18.1100000000,A01A3A,5,1552116814000
1552116822406.2500000000,19,-17.8300000000,A01A3A,5,1552116814000
1552116822421.8798828125,19,-13.5400000000,A01A3A,5,1552116814000
1552116822437.5000000000,19,-5.4700000000,A01A3A,5,1552116814000
1552116822453.1201171875,19,5.4000000000,A01A3A,5,1552116814000
1552116822468.7500000000,19,17.5800000000,A01A3A,5,1552116814000
1552116822484.3798828125,19,29.5200000000,A01A3A,5,1552116814000
1552116822500.0000000000,19,40.1900000000,A01A3A,5,1552116814000
1552116822515.6201171875,19,49.3000000000,A01A3A,5,1552116814000
1552116822531.2500000000,19,56.9900000000,A01A3A,5,1552116814000
1552116822546.8798828125,19,63.3400000000,A01A3A,5,1552116814000
1552116822562.5000000000,19,67.7800000000,A01A3A,5,1552116814000
1552116822578.1201171875,19,69.0300000000,A01A3A,5,1552116814000
1552116822593.7500000000,19,65.5700000000,A01A3A,5,1552116814000
1552116822609.3798828125,19,56.6200000000,A01A3A,5,1552116814000
1552116822625.0000000000,19,42.8900000000,A01A3A,5,1552116814000
1552116822640.6201171875,19,26.9000000000,A01A3A,5,1552116814000
1552116822656.2500000000,19,12.4200000000,A01A3A,5,1552116814000
1552116822671.8798828125,19,3.3200000000,A01A3A,5,1552116814000
1552116822687.5000000000,19,2.2000000000,A01A3A,5,1552116814000
1552116822703.1201171875,19,9.4300000000,A01A3A,5,1552116814000
1552116822718.7500000000,19,22.9700000000,A01A3A,5,1552116814000
1552116822734.3798828125,19,39.0100000000,A01A3A,5,1552116814000
1552116822750.0000000000,19,53.2200000000,A01A3A,5,1552116814000
1552116822765.6201171875,19,62.0300000000,A01A3A,5,1552116814000
1552116822781.2500000000,19,63.4800000000,A01A3A,5,1552116814000
1552116822796.8798828125,19,57.5000000000,A01A3A,5,1552116814000
1552116822812.5000000000,19,45.4200000000,A01A3A,5,1552116814000
1552116822828.1201171875,19,29.5000000000,A01A3A,5,1552116814000
1552116822843.7500000000,19,12.3200000000,A01A3A,5,1552116814000
1552116822859.3798828125,19,-3.7800000000,A01A3A,5,1552116814000
1552116822875.0000000000,19,-17.3500000000,A01A3A,5,1552116814000
1552116822890.6201171875,19,-28.4500000000,A01A3A,5,1552116814000
1552116822906.2500000000,19,-38.9500000000,A01A3A,5,1552116814000
1552116822921.8798828125,19,-52.1200000000,A01A3A,5,1552116814000
1552116822937.5000000000,19,-71.1800000000,A01A3A,5,1552116814000
1552116822953.1201171875,19,-97.4100000000,A01A3A,5,1552116814000
1552116822968.7500000000,19,-128.5600000000,A01A3A,5,1552116814000
1552116822984.3798828125,19,-158.6800000000,A01A3A,5,1552116814000
1552116823000.0000000000,19,-179.7700000000,A01A3A,5,1552116814000
1552116823015.6201171875,19,-184.7500000000,A01A3A,5,1552116814000
1552116823031.2500000000,19,-170.4800000000,A01A3A,5,1552116814000
1552116823046.8798828125,19,-139.5500000000,A01A3A,5,1552116814000
1552116823062.5000000000,19,-99.8400000000,A01A3A,5,1552116814000
1552116823078.1201171875,19,-61.8900000000,A01A3A,5,1552116814000
1552116823093.7500000000,19,-35.4400000000,A01A3A,5,1552116814000
1552116823109.3798828125,19,-26.2200000000,A01A3A,5,1552116814000
1552116823125.0000000000,19,-34.6300000000,A01A3A,5,1552116814000
1552116823140.6201171875,19,-56.2300000000,A01A3A,5,1552116814000
1552116823156.2500000000,19,-83.9100000000,A01A3A,5,1552116814000
1552116823171.8798828125,19,-110.5200000000,A01A3A,5,1552116814000
1552116823187.5000000000,19,-131.0200000000,A01A3A,5,1552116814000
1552116823203.1201171875,19,-143.1300000000,A01A3A,5,1552116814000
1552116823218.7500000000,19,-146.7800000000,A01A3A,5,1552116814000
1552116823234.3798828125,19,-142.9000000000,A01A3A,5,1552116814000
1552116823250.0000000000,19,-132.2700000000,A01A3A,5,1552116814000
1552116823265.6201171875,19,-115.3400000000,A01A3A,5,1552116814000
1552116823281.2500000000,19,-92.8100000000,A01A3A,5,1552116814000
1552116823296.8798828125,19,-66.2500000000,A01A3A,5,1552116814000
1552116823312.5000000000,19,-38.2600000000,A01A3A,5,1552116814000
1552116823328.1201171875,19,-11.6600000000,A01A3A,5,1552116814000
1552116823343.7500000000,19,11.7300000000,A01A3A,5,1552116814000
1552116823359.3798828125,19,31.9900000000,A01A3A,5,1552116814000
1552116823375.0000000000,19,50.9600000000,A01A3A,5,1552116814000
1552116823390.6201171875,19,71.0700000000,A01A3A,5,1552116814000
1552116823406.2500000000,19,93.8000000000,A01A3A,5,1552116814000
1552116823421.8798828125,19,118.5000000000,A01A3A,5,1552116814000
1552116823437.5000000000,19,142.4500000000,A01A3A,5,1552116814000
1552116823453.1201171875,19,161.8000000000,A01A3A,5,1552116814000
1552116823468.7500000000,19,173.2000000000,A01A3A,5,1552116814000
1552116823484.3798828125,19,175.1400000000,A01A3A,5,1552116814000
1552116823500.0000000000,19,168.4600000000,A01A3A,5,1552116814000
1552116823515.6201171875,19,156.0100000000,A01A3A,5,1552116814000
1552116823531.2500000000,19,141.5400000000,A01A3A,5,1552116814000
1552116823546.8798828125,19,128.5700000000,A01A3A,5,1552116814000
1552116823562.5000000000,19,119.4500000000,A01A3A,5,1552116814000
1552116823578.1201171875,19,114.7800000000,A01A3A,5,1552116814000
1552116823593.7500000000,19,113.5500000000,A01A3A,5,1552116814000
1552116823609.3798828125,19,113.5800000000,A01A3A,5,1552116814000
1552116823625.0000000000,19,112.1200000000,A01A3A,5,1552116814000
1552116823640.6201171875,19,106.5600000000,A01A3A,5,1552116814000
1552116823656.2500000000,19,95.1100000000,A01A3A,5,1552116814000
1552116823671.8798828125,19,77.1800000000,A01A3A,5,1552116814000
1552116823687.5000000000,19,53.5500000000,A01A3A,5,1552116814000
1552116823703.1201171875,19,26.2600000000,A01A3A,5,1552116814000
1552116823718.7500000000,19,-1.8400000000,A01A3A,5,1552116814000
1552116823734.3798828125,19,-27.7300000000,A01A3A,5,1552116814000
1552116823750.0000000000,19,-48.9700000000,A01A3A,5,1552116814000
1552116823765.6201171875,19,-64.2300000000,A01A3A,5,1552116814000
1552116823781.2500000000,19,-73.4000000000,A01A3A,5,1552116814000
1552116823796.8798828125,19,-77.3100000000,A01A3A,5,1552116814000
1552116823812.5000000000,19,-77.1100000000,A01A3A,5,1552116814000
1552116823828.1201171875,19,-73.9000000000,A01A3A,5,1552116814000
1552116823843.7500000000,19,-68.5900000000,A01A3A,5,1552116814000
1552116823859.3798828125,19,-62.1300000000,A01A3A,5,1552116814000
1552116823875.0000000000,19,-55.8200000000,A01A3A,5,1552116814000
1552116823890.6201171875,19,-51.1300000000,A01A3A,5,1552116814000
1552116823906.2500000000,19,-49.3500000000,A01A3A,5,1552116814000
1552116823921.8798828125,19,-50.8200000000,A01A3A,5,1552116814000
1552116823937.5000000000,19,-54.4500000000,A01A3A,5,1552116814000
1552116823953.1201171875,19,-58.0900000000,A01A3A,5,1552116814000
1552116823968.7500000000,19,-59.2400000000,A01A3A,5,1552116814000
1552116823984.3798828125,19,-56.2100000000,A01A3A,5,1552116814000
1552116824000.0000000000,19,-48.8200000000,A01A3A,5,1552116814000
1552116824015.6201171875,19,-38.4700000000,A01A3A,5,1552116814000
1552116824031.2500000000,19,-27.6900000000,A01A3A,5,1552116814000
1552116824046.8798828125,19,-19.6300000000,A01A3A,5,1552116814000
1552116824062.5000000000,19,-17.3200000000,A01A3A,5,1552116814000
1552116824078.1201171875,19,-23.1500000000,A01A3A,5,1552116814000
1552116824093.7500000000,19,-37.9500000000,A01A3A,5,1552116814000
1552116824109.3798828125,19,-60.0200000000,A01A3A,5,1552116814000
1552116824125.0000000000,19,-84.7800000000,A01A3A,5,1552116814000
1552116824140.6201171875,19,-105.6000000000,A01A3A,5,1552116814000
1552116824156.2500000000,19,-115.8100000000,A01A3A,5,1552116814000
1552116824171.8798828125,19,-111.2700000000,A01A3A,5,1552116814000
1552116824187.5000000000,19,-92.1200000000,A01A3A,5,1552116814000
1552116824203.1201171875,19,-62.5800000000,A01A3A,5,1552116814000
1552116824218.7500000000,19,-28.9500000000,A01A3A,5,1552116814000
1552116824234.3798828125,19,3.0000000000,A01A3A,5,1552116814000
1552116824250.0000000000,19,29.8900000000,A01A3A,5,1552116814000
1552116824265.6201171875,19,50.8200000000,A01A3A,5,1552116814000
1552116824281.2500000000,19,66.0400000000,A01A3A,5,1552116814000
1552116824296.8798828125,19,75.5200000000,A01A3A,5,1552116814000
1552116824312.5000000000,19,78.4700000000,A01A3A,5,1552116814000
1552116824328.1201171875,19,74.2600000000,A01A3A,5,1552116814000
1552116824343.7500000000,19,63.6200000000,A01A3A,5,1552116814000
1552116824359.3798828125,19,49.2500000000,A01A3A,5,1552116814000
1552116824375.0000000000,19,35.1400000000,A01A3A,5,1552116814000
1552116824390.6201171875,19,24.9200000000,A01A3A,5,1552116814000
1552116824406.2500000000,19,20.3300000000,A01A3A,5,1552116814000
1552116824421.8798828125,19,20.6400000000,A01A3A,5,1552116814000
1552116824437.5000000000,19,23.3700000000,A01A3A,5,1552116814000
1552116824453.1201171875,19,25.6800000000,A01A3A,5,1552116814000
1552116824468.7500000000,19,25.7600000000,A01A3A,5,1552116814000
1552116824484.3798828125,19,23.4700000000,A01A3A,5,1552116814000
1552116824500.0000000000,19,20.1300000000,A01A3A,5,1552116814000
1552116824515.6201171875,19,17.7500000000,A01A3A,5,1552116814000
1552116824531.2500000000,19,18.1400000000,A01A3A,5,1552116814000
1552116824546.8798828125,19,22.1800000000,A01A3A,5,1552116814000
1552116824562.5000000000,19,29.3600000000,A01A3A,5,1552116814000
1552116824578.1201171875,19,37.7000000000,A01A3A,5,1552116814000
1552116824593.7500000000,19,44.0900000000,A01A3A,5,1552116814000
1552116824609.3798828125,19,44.9800000000,A01A3A,5,1552116814000
1552116824625.0000000000,19,37.5800000000,A01A3A,5,1552116814000
1552116824640.6201171875,19,21.0900000000,A01A3A,5,1552116814000
1552116824656.2500000000,19,-2.5200000000,A01A3A,5,1552116814000
1552116824671.8798828125,19,-28.6500000000,A01A3A,5,1552116814000
1552116824687.5000000000,19,-51.3900000000,A01A3A,5,1552116814000
1552116824703.1201171875,19,-65.5600000000,A01A3A,5,1552116814000
1552116824718.7500000000,19,-68.6200000000,A01A3A,5,1552116814000
1552116824734.3798828125,19,-61.3900000000,A01A3A,5,1552116814000
1552116824750.0000000000,19,-47.4700000000,A01A3A,5,1552116814000
1552116824765.6201171875,19,-31.3500000000,A01A3A,5,1552116814000
1552116824781.2500000000,19,-16.5500000000,A01A3A,5,1552116814000
1552116824796.8798828125,19,-4.6000000000,A01A3A,5,1552116814000
1552116824812.5000000000,19,4.7700000000,A01A3A,5,1552116814000
1552116824828.1201171875,19,12.3700000000,A01A3A,5,1552116814000
1552116824843.7500000000,19,18.4200000000,A01A3A,5,1552116814000
1552116824859.3798828125,19,22.0600000000,A01A3A,5,1552116814000
1552116824875.0000000000,19,21.9500000000,A01A3A,5,1552116814000
1552116824890.6201171875,19,17.3500000000,A01A3A,5,1552116814000
1552116824906.2500000000,19,9.0000000000,A01A3A,5,1552116814000
1552116824921.8798828125,19,-0.8600000000,A01A3A,5,1552116814000
1552116824937.5000000000,19,-9.3400000000,A01A3A,5,1552116814000
1552116824953.1201171875,19,-14.1700000000,A01A3A,5,1552116814000
1552116824968.7500000000,19,-14.6500000000,A01A3A,5,1552116814000
1552116824984.3798828125,19,-11.7800000000,A01A3A,5,1552116814000
1552116825000.0000000000,19,-7.6300000000,A01A3A,5,1552116814000
1552116825015.6201171875,19,-4.3200000000,A01A3A,5,1552116814000
1552116825031.2500000000,19,-3.0900000000,A01A3A,5,1552116814000
1552116825046.8798828125,19,-3.9500000000,A01A3A,5,1552116814000
1552116825062.5000000000,19,-5.9200000000,A01A3A,5,1552116814000
1552116825078.1201171875,19,-7.7300000000,A01A3A,5,1552116814000
1552116825093.7500000000,19,-8.4300000000,A01A3A,5,1552116814000
1552116825109.3798828125,19,-7.8500000000,A01A3A,5,1552116814000
1552116825125.0000000000,19,-6.5500000000,A01A3A,5,1552116814000
1552116825140.6201171875,19,-5.4500000000,A01A3A,5,1552116814000
1552116825156.2500000000,19,-5.3500000000,A01A3A,5,1552116814000
1552116825171.8798828125,19,-6.5900000000,A01A3A,5,1552116814000
1552116825187.5000000000,19,-8.9300000000,A01A3A,5,1552116814000
1552116825203.1201171875,19,-11.7500000000,A01A3A,5,1552116814000
1552116825218.7500000000,19,-14.2300000000,A01A3A,5,1552116814000
1552116825234.3798828125,19,-15.6700000000,A01A3A,5,1552116814000
1552116825250.0000000000,19,-15.5900000000,A01A3A,5,1552116814000
1552116825265.6201171875,19,-13.7200000000,A01A3A,5,1552116814000
1552116825281.2500000000,19,-10.0500000000,A01A3A,5,1552116814000
1552116825296.8798828125,19,-4.7200000000,A01A3A,5,1552116814000
1552116825312.5000000000,19,1.9000000000,A01A3A,5,1552116814000
1552116825328.1201171875,19,9.2600000000,A01A3A,5,1552116814000
1552116825343.7500000000,19,16.5900000000,A01A3A,5,1552116814000
1552116825359.3798828125,19,23.1500000000,A01A3A,5,1552116814000
1552116825375.0000000000,19,28.2500000000,A01A3A,5,1552116814000
1552116825390.6201171875,19,31.4700000000,A01A3A,5,1552116814000
1552116825406.2500000000,19,32.6600000000,A01A3A,5,1552116814000
1552116825421.8798828125,19,31.9400000000,A01A3A,5,1552116814000
1552116825437.5000000000,19,29.5800000000,A01A3A,5,1552116814000
1552116825453.1201171875,19,25.9200000000,A01A3A,5,1552116814000
1552116825468.7500000000,19,21.3300000000,A01A3A,5,1552116814000
1552116825484.3798828125,19,16.2500000000,A01A3A,5,1552116814000
1552116825500.0000000000,19,11.2000000000,A01A3A,5,1552116814000
1552116825515.6201171875,19,6.6800000000,A01A3A,5,1552116814000
1552116825531.2500000000,19,3.1400000000,A01A3A,5,1552116814000
1552116825546.8798828125,19,0.7300000000,A01A3A,5,1552116814000
1552116825562.5000000000,19,-0.7900000000,A01A3A,5,1552116814000
1552116825578.1201171875,19,-1.9300000000,A01A3A,5,1552116814000
1552116825593.7500000000,19,-3.2900000000,A01A3A,5,1552116814000
1552116825609.3798828125,19,-5.1800000000,A01A3A,5,1552116814000
1552116825625.0000000000,19,-7.3700000000,A01A3A,5,1552116814000
1552116825640.6201171875,19,-9.0800000000,A01A3A,5,1552116814000
1552116825656.2500000000,19,-9.3000000000,A01A3A,5,1552116814000
1552116825671.8798828125,19,-7.3300000000,A01A3A,5,1552116814000
1552116825687.5000000000,19,-3.0900000000,A01A3A,5,1552116814000
1552116825703.1201171875,19,2.6600000000,A01A3A,5,1552116814000
1552116825718.7500000000,19,8.6600000000,A01A3A,5,1552116814000
1552116825734.3798828125,19,13.5800000000,A01A3A,5,1552116814000
1552116825750.0000000000,19,16.5300000000,A01A3A,5,1552116814000
1552116825765.6201171875,19,17.3100000000,A01A3A,5,1552116814000
1552116825781.2500000000,19,16.2600000000,A01A3A,5,1552116814000
1552116825796.8798828125,19,13.9400000000,A01A3A,5,1552116814000
1552116825812.5000000000,19,10.8800000000,A01A3A,5,1552116814000
1552116825828.1201171875,19,7.4500000000,A01A3A,5,1552116814000
1552116825843.7500000000,19,3.9100000000,A01A3A,5,1552116814000
1552116825859.3798828125,19,0.5700000000,A01A3A,5,1552116814000
1552116825875.0000000000,19,-2.1900000000,A01A3A,5,1552116814000
1552116825890.6201171875,19,-3.9700000000,A01A3A,5,1552116814000
1552116825906.2500000000,19,-4.5500000000,A01A3A,5,1552116814000
1552116825921.8798828125,19,-3.9800000000,A01A3A,5,1552116814000
1552116825937.5000000000,19,-2.6200000000,A01A3A,5,1552116814000
1552116825953.1201171875,19,-1.0500000000,A01A3A,5,1552116814000
1552116825968.7500000000,19,0.2200000000,A01A3A,5,1552116814000
1552116825984.3798828125,19,0.7800000000,A01A3A,5,1552116814000
1552116826000.0000000000,19,0.5100000000,A01A3A,5,1552116814000
1552116826015.6201171875,19,-0.4300000000,A01A3A,5,1552116814000
1552116826031.2500000000,19,-1.7300000000,A01A3A,5,1552116814000
1552116826046.8798828125,19,-2.9200000000,A01A3A,5,1552116814000
1552116826062.5000000000,19,-3.6000000000,A01A3A,5,1552116814000
1552116826078.1201171875,19,-3.4500000000,A01A3A,5,1552116814000
1552116826093.7500000000,19,-2.4400000000,A01A3A,5,1552116814000
1552116826109.3798828125,19,-0.7600000000,A01A3A,5,1552116814000
1552116826125.0000000000,19,1.2000000000,A01A3A,5,1552116814000
1552116826140.6201171875,19,2.9700000000,A01A3A,5,1552116814000
1552116826156.2500000000,19,4.1400000000,A01A3A,5,1552116814000
1552116826171.8798828125,19,4.4300000000,A01A3A,5,1552116814000
1552116826187.5000000000,19,3.8000000000,A01A3A,5,1552116814000
1552116826203.1201171875,19,2.3300000000,A01A3A,5,1552116814000
1552116826218.7500000000,19,0.3000000000,A01A3A,5,1552116814000
1552116826234.3798828125,19,-1.9700000000,A01A3A,5,1552116814000
1552116826250.0000000000,19,-4.1900000000,A01A3A,5,1552116814000
1552116826265.6201171875,19,-6.0800000000,A01A3A,5,1552116814000
1552116826281.2500000000,19,-7.5100000000,A01A3A,5,1552116814000
1552116826296.8798828125,19,-8.4700000000,A01A3A,5,1552116814000
1552116826312.5000000000,19,-9.0500000000,A01A3A,5,1552116814000
1552116826328.1201171875,19,-9.4000000000,A01A3A,5,1552116814000
1552116826343.7500000000,19,-9.6800000000,A01A3A,5,1552116814000
1552116826359.3798828125,19,-9.9800000000,A01A3A,5,1552116814000
1552116826375.0000000000,19,-10.3800000000,A01A3A,5,1552116814000
1552116826390.6201171875,19,-10.9600000000,A01A3A,5,1552116814000
1552116826406.2500000000,19,-11.8200000000,A01A3A,5,1552116814000
1552116826421.8798828125,19,-13.0700000000,A01A3A,5,1552116814000
1552116826437.5000000000,19,-14.7000000000,A01A3A,5,1552116814000
1552116826453.1201171875,19,-16.4400000000,A01A3A,5,1552116814000
1552116826468.7500000000,19,-17.7100000000,A01A3A,5,1552116814000
1552116826484.3798828125,19,-17.7600000000,A01A3A,5,1552116814000
1552116826500.0000000000,19,-15.8900000000,A01A3A,5,1552116814000
1552116826515.6201171875,19,-11.8500000000,A01A3A,5,1552116814000
1552116826531.2500000000,19,-5.9600000000,A01A3A,5,1552116814000
1552116826546.8798828125,19,0.8400000000,A01A3A,5,1552116814000
1552116826562.5000000000,19,7.3500000000,A01A3A,5,1552116814000
1552116826578.1201171875,19,12.4800000000,A01A3A,5,1552116814000
1552116826593.7500000000,19,15.5600000000,A01A3A,5,1552116814000
1552116826609.3798828125,19,16.5000000000,A01A3A,5,1552116814000
1552116826625.0000000000,19,15.6500000000,A01A3A,5,1552116814000
1552116826640.6201171875,19,13.6200000000,A01A3A,5,1552116814000
1552116826656.2500000000,19,11.0300000000,A01A3A,5,1552116814000
1552116826671.8798828125,19,8.3700000000,A01A3A,5,1552116814000
1552116826687.5000000000,19,5.9800000000,A01A3A,5,1552116814000
1552116826703.1201171875,19,4.0300000000,A01A3A,5,1552116814000
1552116826718.7500000000,19,2.6500000000,A01A3A,5,1552116814000
1552116826734.3798828125,19,1.8900000000,A01A3A,5,1552116814000
1552116826750.0000000000,19,1.7900000000,A01A3A,5,1552116814000
1552116826765.6201171875,19,2.3300000000,A01A3A,5,1552116814000
1552116826781.2500000000,19,3.4400000000,A01A3A,5,1552116814000
1552116826796.8798828125,19,5.0100000000,A01A3A,5,1552116814000
1552116826812.5000000000,19,6.7300000000,A01A3A,5,1552116814000
1552116826828.1201171875,19,8.2800000000,A01A3A,5,1552116814000
1552116826843.7500000000,19,9.2500000000,A01A3A,5,1552116814000
1552116826859.3798828125,19,9.4000000000,A01A3A,5,1552116814000
1552116826875.0000000000,19,8.6800000000,A01A3A,5,1552116814000
1552116826890.6201171875,19,7.3100000000,A01A3A,5,1552116814000
1552116826906.2500000000,19,5.6500000000,A01A3A,5,1552116814000
1552116826921.8798828125,19,4.1200000000,A01A3A,5,1552116814000
1552116826937.5000000000,19,3.0000000000,A01A3A,5,1552116814000
1552116826953.1201171875,19,2.3500000000,A01A3A,5,1552116814000
1552116826968.7500000000,19,2.0400000000,A01A3A,5,1552116814000
1552116826984.3798828125,19,1.7900000000,A01A3A,5,1552116814000
1552116827000.0000000000,19,1.3600000000,A01A3A,5,1552116814000
1552116827015.6201171875,19,0.6200000000,A01A3A,5,1552116814000
1552116827031.2500000000,19,-0.4400000000,A01A3A,5,1552116814000
1552116827046.8798828125,19,-1.7500000000,A01A3A,5,1552116814000
1552116827062.5000000000,19,-3.1900000000,A01A3A,5,1552116814000
1552116827078.1201171875,19,-4.6100000000,A01A3A,5,1552116814000
1552116827093.7500000000,19,-5.8700000000,A01A3A,5,1552116814000
1552116827109.3798828125,19,-6.7600000000,A01A3A,5,1552116814000
1552116827125.0000000000,19,-7.1400000000,A01A3A,5,1552116814000
1552116827140.6201171875,19,-6.9900000000,A01A3A,5,1552116814000
1552116827156.2500000000,19,-6.5700000000,A01A3A,5,1552116814000
1552116827171.8798828125,19,-6.3500000000,A01A3A,5,1552116814000
1552116827187.5000000000,19,-6.9500000000,A01A3A,5,1552116814000
1552116827203.1201171875,19,-8.7500000000,A01A3A,5,1552116814000
1552116827218.7500000000,19,-11.6900000000,A01A3A,5,1552116814000
1552116827234.3798828125,19,-15.1000000000,A01A3A,5,1552116814000
1552116827250.0000000000,19,-17.8700000000,A01A3A,5,1552116814000
1552116827265.6201171875,19,-18.7700000000,A01A3A,5,1552116814000
1552116827281.2500000000,19,-16.9600000000,A01A3A,5,1552116814000
1552116827296.8798828125,19,-12.2600000000,A01A3A,5,1552116814000
1552116827312.5000000000,19,-5.3000000000,A01A3A,5,1552116814000
1552116827328.1201171875,19,2.7500000000,A01A3A,5,1552116814000
1552116827343.7500000000,19,10.5000000000,A01A3A,5,1552116814000
1552116827359.3798828125,19,16.7600000000,A01A3A,5,1552116814000
1552116827375.0000000000,19,20.8100000000,A01A3A,5,1552116814000
1552116827390.6201171875,19,22.4500000000,A01A3A,5,1552116814000
1552116827406.2500000000,19,22.0300000000,A01A3A,5,1552116814000
1552116827421.8798828125,19,20.1700000000,A01A3A,5,1552116814000
1552116827437.5000000000,19,17.6600000000,A01A3A,5,1552116814000
1552116827453.1201171875,19,15.2300000000,A01A3A,5,1552116814000
1552116827468.7500000000,19,13.4000000000,A01A3A,5,1552116814000
1552116827484.3798828125,19,12.4200000000,A01A3A,5,1552116814000
1552116827500.0000000000,19,12.2300000000,A01A3A,5,1552116814000
1552116827515.6201171875,19,12.5200000000,A01A3A,5,1552116814000
1552116827531.2500000000,19,12.9000000000,A01A3A,5,1552116814000
1552116827546.8798828125,19,12.9500000000,A01A3A,5,1552116814000
1552116827562.5000000000,19,12.4100000000,A01A3A,5,1552116814000
1552116827578.1201171875,19,11.3100000000,A01A3A,5,1552116814000
1552116827593.7500000000,19,9.8700000000,A01A3A,5,1552116814000
1552116827609.3798828125,19,8.5100000000,A01A3A,5,1552116814000
1552116827625.0000000000,19,7.6700000000,A01A3A,5,1552116814000
1552116827640.6201171875,19,7.6200000000,A01A3A,5,1552116814000
1552116827656.2500000000,19,8.3300000000,A01A3A,5,1552116814000
1552116827671.8798828125,19,9.3600000000,A01A3A,5,1552116814000
1552116827687.5000000000,19,9.9600000000,A01A3A,5,1552116814000
1552116827703.1201171875,19,9.3300000000,A01A3A,5,1552116814000
1552116827718.7500000000,19,6.8200000000,A01A3A,5,1552116814000
1552116827734.3798828125,19,2.2400000000,A01A3A,5,1552116814000
1552116827750.0000000000,19,-4.1000000000,A01A3A,5,1552116814000
1552116827765.6201171875,19,-11.3500000000,A01A3A,5,1552116814000
1552116827781.2500000000,19,-18.4200000000,A01A3A,5,1552116814000
1552116827796.8798828125,19,-24.1700000000,A01A3A,5,1552116814000
1552116827812.5000000000,19,-27.7400000000,A01A3A,5,1552116814000
1552116827828.1201171875,19,-28.7400000000,A01A3A,5,1552116814000
1552116827843.7500000000,19,-27.3400000000,A01A3A,5,1552116814000
1552116827859.3798828125,19,-24.2100000000,A01A3A,5,1552116814000
1552116827875.0000000000,19,-20.3100000000,A01A3A,5,1552116814000
1552116827890.6201171875,19,-16.6100000000,A01A3A,5,1552116814000
1552116827906.2500000000,19,-13.9300000000,A01A3A,5,1552116814000
1552116827921.8798828125,19,-12.7500000000,A01A3A,5,1552116814000
1552116827937.5000000000,19,-13.3100000000,A01A3A,5,1552116814000
1552116827953.1201171875,19,-15.6900000000,A01A3A,5,1552116814000
1552116827968.7500000000,19,-19.8500000000,A01A3A,5,1552116814000
1552116827984.3798828125,19,-25.6400000000,A01A3A,5,1552116814000
1552116828000.0000000000,19,-32.5800000000,A01A3A,5,1552116814000
1552116828015.6201171875,19,-39.7900000000,A01A3A,5,1552116814000
1552116828031.2500000000,19,-46.0200000000,A01A3A,5,1552116814000
1552116828046.8798828125,19,-49.9000000000,A01A3A,5,1552116814000
1552116828062.5000000000,19,-50.3400000000,A01A3A,5,1552116814000
1552116828078.1201171875,19,-46.8700000000,A01A3A,5,1552116814000
1552116828093.7500000000,19,-39.8500000000,A01A3A,5,1552116814000
1552116828109.3798828125,19,-30.3700000000,A01A3A,5,1552116814000
1552116828125.0000000000,19,-19.8000000000,A01A3A,5,1552116814000
1552116828140.6201171875,19,-9.5000000000,A01A3A,5,1552116814000
1552116828156.2500000000,19,-0.4800000000,A01A3A,5,1552116814000
1552116828171.8798828125,19,6.7000000000,A01A3A,5,1552116814000
1552116828187.5000000000,19,11.7700000000,A01A3A,5,1552116814000
1552116828203.1201171875,19,14.6100000000,A01A3A,5,1552116814000
1552116828218.7500000000,19,15.1700000000,A01A3A,5,1552116814000
1552116828234.3798828125,19,13.5300000000,A01A3A,5,1552116814000
1552116828250.0000000000,19,10.0900000000,A01A3A,5,1552116814000
1552116828265.6201171875,19,5.6300000000,A01A3A,5,1552116814000
1552116828281.2500000000,19,1.2700000000,A01A3A,5,1552116814000
1552116828296.8798828125,19,-1.8400000000,A01A3A,5,1552116814000
1552116828312.5000000000,19,-2.8200000000,A01A3A,5,1552116814000
1552116828328.1201171875,19,-1.3400000000,A01A3A,5,1552116814000
1552116828343.7500000000,19,2.2900000000,A01A3A,5,1552116814000
1552116828359.3798828125,19,7.2500000000,A01A3A,5,1552116814000
1552116828375.0000000000,19,12.4800000000,A01A3A,5,1552116814000
1552116828390.6201171875,19,17.0000000000,A01A3A,5,1552116814000
1552116828406.2500000000,19,20.0700000000,A01A3A,5,1552116814000
1552116828421.8798828125,19,21.3200000000,A01A3A,5,1552116814000
1552116828437.5000000000,19,20.7100000000,A01A3A,5,1552116814000
1552116828453.1201171875,19,18.5600000000,A01A3A,5,1552116814000
1552116828468.7500000000,19,15.3500000000,A01A3A,5,1552116814000
1552116828484.3798828125,19,11.6700000000,A01A3A,5,1552116814000
1552116828500.0000000000,19,8.0400000000,A01A3A,5,1552116814000
1552116828515.6201171875,19,4.8700000000,A01A3A,5,1552116814000
1552116828531.2500000000,19,2.3900000000,A01A3A,5,1552116814000
1552116828546.8798828125,19,0.6200000000,A01A3A,5,1552116814000
1552116828562.5000000000,19,-0.5900000000,A01A3A,5,1552116814000
1552116828578.1201171875,19,-1.5400000000,A01A3A,5,1552116814000
1552116828593.7500000000,19,-2.6500000000,A01A3A,5,1552116814000
1552116828609.3798828125,19,-4.3800000000,A01A3A,5,1552116814000
1552116828625.0000000000,19,-7.0300000000,A01A3A,5,1552116814000
1552116828640.6201171875,19,-10.5700000000,A01A3A,5,1552116814000
1552116828656.2500000000,19,-14.6300000000,A01A3A,5,1552116814000
1552116828671.8798828125,19,-18.5000000000,A01A3A,5,1552116814000
1552116828687.5000000000,19,-21.4500000000,A01A3A,5,1552116814000
1552116828703.1201171875,19,-22.9700000000,A01A3A,5,1552116814000
1552116828718.7500000000,19,-22.8700000000,A01A3A,5,1552116814000
1552116828734.3798828125,19,-21.2200000000,A01A3A,5,1552116814000
1552116828750.0000000000,19,-18.1000000000,A01A3A,5,1552116814000
1552116828765.6201171875,19,-13.5500000000,A01A3A,5,1552116814000
1552116828781.2500000000,19,-7.5300000000,A01A3A,5,1552116814000
1552116828796.8798828125,19,-0.2200000000,A01A3A,5,1552116814000
1552116828812.5000000000,19,7.8400000000,A01A3A,5,1552116814000
1552116828828.1201171875,19,15.6900000000,A01A3A,5,1552116814000
1552116828843.7500000000,19,22.1900000000,A01A3A,5,1552116814000
1552116828859.3798828125,19,26.4600000000,A01A3A,5,1552116814000
1552116828875.0000000000,19,28.1900000000,A01A3A,5,1552116814000
1552116828890.6201171875,19,27.7300000000,A01A3A,5,1552116814000
1552116828906.2500000000,19,25.8500000000,A01A3A,5,1552116814000
1552116828921.8798828125,19,23.3700000000,A01A3A,5,1552116814000
1552116828937.5000000000,19,20.8000000000,A01A3A,5,1552116814000
1552116828953.1201171875,19,18.2700000000,A01A3A,5,1552116814000
1552116828968.7500000000,19,15.6500000000,A01A3A,5,1552116814000
1552116828984.3798828125,19,12.8100000000,A01A3A,5,1552116814000
1552116829000.0000000000,19,9.8200000000,A01A3A,5,1552116814000
1552116829015.6201171875,19,6.9900000000,A01A3A,5,1552116814000
1552116829031.2500000000,19,4.7300000000,A01A3A,5,1552116814000
1552116829046.8798828125,19,3.3500000000,A01A3A,5,1552116814000
1552116829062.5000000000,19,2.9500000000,A01A3A,5,1552116814000
1552116829078.1201171875,19,3.3800000000,A01A3A,5,1552116814000
1552116829093.7500000000,19,4.3700000000,A01A3A,5,1552116814000
1552116829109.3798828125,19,5.6100000000,A01A3A,5,1552116814000
1552116829125.0000000000,19,6.9100000000,A01A3A,5,1552116814000
1552116829140.6201171875,19,8.1300000000,A01A3A,5,1552116814000
1552116829156.2500000000,19,9.2500000000,A01A3A,5,1552116814000
1552116829171.8798828125,19,10.1300000000,A01A3A,5,1552116814000
1552116829187.5000000000,19,10.5800000000,A01A3A,5,1552116814000
1552116829203.1201171875,19,10.3200000000,A01A3A,5,1552116814000
1552116829218.7500000000,19,9.1700000000,A01A3A,5,1552116814000
1552116829234.3798828125,19,7.1000000000,A01A3A,5,1552116814000
1552116829250.0000000000,19,4.3700000000,A01A3A,5,1552116814000
1552116829265.6201171875,19,1.4900000000,A01A3A,5,1552116814000
1552116829281.2500000000,19,-1.0300000000,A01A3A,5,1552116814000
1552116829296.8798828125,19,-2.8300000000,A01A3A,5,1552116814000
1552116829312.5000000000,19,-3.9200000000,A01A3A,5,1552116814000
1552116829328.1201171875,19,-4.6400000000,A01A3A,5,1552116814000
1552116829343.7500000000,19,-5.4900000000,A01A3A,5,1552116814000
1552116829359.3798828125,19,-6.9300000000,A01A3A,5,1552116814000
1552116829375.0000000000,19,-9.1600000000,A01A3A,5,1552116814000
1552116829390.6201171875,19,-12.1400000000,A01A3A,5,1552116814000
1552116829406.2500000000,19,-15.5700000000,A01A3A,5,1552116814000
1552116829421.8798828125,19,-18.9500000000,A01A3A,5,1552116814000
1552116829437.5000000000,19,-21.5600000000,A01A3A,5,1552116814000
1552116829453.1201171875,19,-22.5700000000,A01A3A,5,1552116814000
1552116829468.7500000000,19,-21.2100000000,A01A3A,5,1552116814000
1552116829484.3798828125,19,-17.0600000000,A01A3A,5,1552116814000
1552116829500.0000000000,19,-10.3700000000,A01A3A,5,1552116814000
1552116829515.6201171875,19,-2.1300000000,A01A3A,5,1552116814000
1552116829531.2500000000,19,6.1200000000,A01A3A,5,1552116814000
1552116829546.8798828125,19,12.8300000000,A01A3A,5,1552116814000
1552116829562.5000000000,19,16.9100000000,A01A3A,5,1552116814000
1552116829578.1201171875,19,18.1900000000,A01A3A,5,1552116814000
1552116829593.7500000000,19,17.2900000000,A01A3A,5,1552116814000
1552116829609.3798828125,19,15.2600000000,A01A3A,5,1552116814000
1552116829625.0000000000,19,13.1000000000,A01A3A,5,1552116814000
1552116829640.6201171875,19,11.3400000000,A01A3A,5,1552116814000
1552116829656.2500000000,19,10.0400000000,A01A3A,5,1552116814000
1552116829671.8798828125,19,8.9500000000,A01A3A,5,1552116814000
1552116829687.5000000000,19,7.9100000000,A01A3A,5,1552116814000
1552116829703.1201171875,19,6.9900000000,A01A3A,5,1552116814000
1552116829718.7500000000,19,6.5700000000,A01A3A,5,1552116814000
1552116829734.3798828125,19,7.1500000000,A01A3A,5,1552116814000
1552116829750.0000000000,19,9.0700000000,A01A3A,5,1552116814000
1552116829765.6201171875,19,12.4300000000,A01A3A,5,1552116814000
1552116829781.2500000000,19,16.9300000000,A01A3A,5,1552116814000
1552116829796.8798828125,19,22.1200000000,A01A3A,5,1552116814000
1552116829812.5000000000,19,27.3900000000,A01A3A,5,1552116814000
1552116829828.1201171875,19,32.0300000000,A01A3A,5,1552116814000
1552116829843.7500000000,19,35.1500000000,A01A3A,5,1552116814000
1552116829859.3798828125,19,35.6900000000,A01A3A,5,1552116814000
1552116829875.0000000000,19,32.6200000000,A01A3A,5,1552116814000
1552116829890.6201171875,19,25.2900000000,A01A3A,5,1552116814000
1552116829906.2500000000,19,13.7800000000,A01A3A,5,1552116814000
1552116829921.8798828125,19,-1.0300000000,A01A3A,5,1552116814000
1552116829937.5000000000,19,-17.7300000000,A01A3A,5,1552116814000
1552116829953.1201171875,19,-34.9100000000,A01A3A,5,1552116814000
1552116829968.7500000000,19,-51.6400000000,A01A3A,5,1552116814000
1552116829984.3798828125,19,-67.7400000000,A01A3A,5,1552116814000
1552116830000.0000000000,19,-83.5800000000,A01A3A,5,1552116814000
1552116830015.6201171875,19,-99.7200000000,A01A3A,5,1552116814000
1552116830031.2500000000,19,-116.6000000000,A01A3A,5,1552116814000
1552116830046.8798828125,19,-134.2700000000,A01A3A,5,1552116814000
1552116830062.5000000000,19,-152.3900000000,A01A3A,5,1552116814000
1552116830078.1201171875,19,-170.3800000000,A01A3A,5,1552116814000
1552116830093.7500000000,19,-187.5200000000,A01A3A,5,1552116814000
1552116830109.3798828125,19,-203.1500000000,A01A3A,5,1552116814000
1552116830125.0000000000,19,-217.0000000000,A01A3A,5,1552116814000
1552116830140.6201171875,19,-229.4700000000,A01A3A,5,1552116814000
1552116830156.2500000000,19,-241.6300000000,A01A3A,5,1552116814000
1552116830171.8798828125,19,-254.6800000000,A01A3A,5,1552116814000
1552116830187.5000000000,19,-269.0200000000,A01A3A,5,1552116814000
1552116830203.1201171875,19,-283.4700000000,A01A3A,5,1552116814000
1552116830218.7500000000,19,-295.1500000000,A01A3A,5,1552116814000
1552116830234.3798828125,19,-300.4100000000,A01A3A,5,1552116814000
1552116830250.0000000000,19,-296.2700000000,A01A3A,5,1552116814000
1552116830265.6201171875,19,-281.8500000000,A01A3A,5,1552116814000
1552116830281.2500000000,19,-258.7100000000,A01A3A,5,1552116814000
1552116830296.8798828125,19,-230.1200000000,A01A3A,5,1552116814000
1552116830312.5000000000,19,-199.5000000000,A01A3A,5,1552116814000
1552116830328.1201171875,19,-168.9300000000,A01A3A,5,1552116814000
1552116830343.7500000000,19,-138.5300000000,A01A3A,5,1552116814000
1552116830359.3798828125,19,-106.8800000000,A01A3A,5,1552116814000
1552116830375.0000000000,19,-72.0500000000,A01A3A,5,1552116814000
1552116830390.6201171875,19,-32.4800000000,A01A3A,5,1552116814000
1552116830406.2500000000,19,12.5500000000,A01A3A,5,1552116814000
1552116830421.8798828125,19,63.1200000000,A01A3A,5,1552116814000
1552116830437.5000000000,19,118.9200000000,A01A3A,5,1552116814000
1552116830453.1201171875,19,179.2500000000,A01A3A,5,1552116814000
1552116830468.7500000000,19,242.7200000000,A01A3A,5,1552116814000
1552116830484.3798828125,19,306.7400000000,A01A3A,5,1552116814000
1552116830500.0000000000,19,367.6100000000,A01A3A,5,1552116814000
1552116830515.6201171875,19,421.2500000000,A01A3A,5,1552116814000
1552116830531.2500000000,19,464.3000000000,A01A3A,5,1552116814000
1552116830546.8798828125,19,495.3800000000,A01A3A,5,1552116814000
1552116830562.5000000000,19,515.4700000000,A01A3A,5,1552116814000
1552116830578.1201171875,19,527.3500000000,A01A3A,5,1552116814000
1552116830593.7500000000,19,534.1600000000,A01A3A,5,1552116814000
1552116830609.3798828125,19,538.0600000000,A01A3A,5,1552116814000
1552116830625.0000000000,19,539.4100000000,A01A3A,5,1552116814000
1552116830640.6201171875,19,537.2400000000,A01A3A,5,1552116814000
1552116830656.2500000000,19,530.1000000000,A01A3A,5,1552116814000
1552116830671.8798828125,19,517.1300000000,A01A3A,5,1552116814000
1552116830687.5000000000,19,498.3300000000,A01A3A,5,1552116814000
1552116830703.1201171875,19,474.2000000000,A01A3A,5,1552116814000
1552116830718.7500000000,19,445.1100000000,A01A3A,5,1552116814000
1552116830734.3798828125,19,411.0300000000,A01A3A,5,1552116814000
1552116830750.0000000000,19,371.9400000000,A01A3A,5,1552116814000
1552116830765.6201171875,19,328.4800000000,A01A3A,5,1552116814000
1552116830781.2500000000,19,282.5300000000,A01A3A,5,1552116814000
1552116830796.8798828125,19,237.1400000000,A01A3A,5,1552116814000
1552116830812.5000000000,19,195.6500000000,A01A3A,5,1552116814000
1552116830828.1201171875,19,160.5900000000,A01A3A,5,1552116814000
1552116830843.7500000000,19,132.7100000000,A01A3A,5,1552116814000
1552116830859.3798828125,19,110.6700000000,A01A3A,5,1552116814000
1552116830875.0000000000,19,91.4900000000,A01A3A,5,1552116814000
1552116830890.6201171875,19,71.5400000000,A01A3A,5,1552116814000
1552116830906.2500000000,19,47.5500000000,A01A3A,5,1552116814000
1552116830921.8798828125,19,17.5100000000,A01A3A,5,1552116814000
1552116830937.5000000000,19,-18.9800000000,A01A3A,5,1552116814000
1552116830953.1201171875,19,-60.8500000000,A01A3A,5,1552116814000
1552116830968.7500000000,19,-106.0900000000,A01A3A,5,1552116814000
1552116830984.3798828125,19,-152.4600000000,A01A3A,5,1552116814000
1552116831000.0000000000,19,-198.1600000000,A01A3A,5,1552116814000
1552116831015.6201171875,19,-242.1100000000,A01A3A,5,1552116814000
1552116831031.2500000000,19,-283.8100000000,A01A3A,5,1552116814000
1552116831046.8798828125,19,-322.9900000000,A01A3A,5,1552116814000
1552116831062.5000000000,19,-359.0200000000,A01A3A,5,1552116814000
1552116831078.1201171875,19,-390.7200000000,A01A3A,5,1552116814000
1552116831093.7500000000,19,-416.6000000000,A01A3A,5,1552116814000
1552116831109.3798828125,19,-435.2800000000,A01A3A,5,1552116814000
1552116831125.0000000000,19,-446.2400000000,A01A3A,5,1552116814000
1552116831140.6201171875,19,-450.1600000000,A01A3A,5,1552116814000
1552116831156.2500000000,19,-448.8500000000,A01A3A,5,1552116814000
1552116831171.8798828125,19,-444.3400000000,A01A3A,5,1552116814000
1552116831187.5000000000,19,-437.6800000000,A01A3A,5,1552116814000
1552116831203.1201171875,19,-427.9700000000,A01A3A,5,1552116814000
1552116831218.7500000000,19,-412.4800000000,A01A3A,5,1552116814000
1552116831234.3798828125,19,-388.1500000000,A01A3A,5,1552116814000
1552116831250.0000000000,19,-353.5900000000,A01A3A,5,1552116814000
1552116831265.6201171875,19,-310.8700000000,A01A3A,5,1552116814000
1552116831281.2500000000,19,-265.6000000000,A01A3A,5,1552116814000
1552116831296.8798828125,19,-225.1000000000,A01A3A,5,1552116814000
1552116831312.5000000000,19,-195.3600000000,A01A3A,5,1552116814000
1552116831328.1201171875,19,-178.1800000000,A01A3A,5,1552116814000
1552116831343.7500000000,19,-170.1900000000,A01A3A,5,1552116814000
1552116831359.3798828125,19,-164.4600000000,A01A3A,5,1552116814000
1552116831375.0000000000,19,-153.6100000000,A01A3A,5,1552116814000
1552116831390.6201171875,19,-133.2000000000,A01A3A,5,1552116814000
1552116831406.2500000000,19,-103.3300000000,A01A3A,5,1552116814000
1552116831421.8798828125,19,-67.9500000000,A01A3A,5,1552116814000
1552116831437.5000000000,19,-32.3200000000,A01A3A,5,1552116814000
1552116831453.1201171875,19,-0.2000000000,A01A3A,5,1552116814000
1552116831468.7500000000,19,27.5000000000,A01A3A,5,1552116814000
1552116831484.3798828125,19,52.3800000000,A01A3A,5,1552116814000
1552116831500.0000000000,19,76.6700000000,A01A3A,5,1552116814000
1552116831515.6201171875,19,101.4100000000,A01A3A,5,1552116814000
1552116831531.2500000000,19,125.6400000000,A01A3A,5,1552116814000
1552116831546.8798828125,19,147.1200000000,A01A3A,5,1552116814000
1552116831562.5000000000,19,163.9200000000,A01A3A,5,1552116814000
1552116831578.1201171875,19,175.7800000000,A01A3A,5,1552116814000
1552116831593.7500000000,19,184.3100000000,A01A3A,5,1552116814000
1552116831609.3798828125,19,191.8900000000,A01A3A,5,1552116814000
1552116831625.0000000000,19,200.1900000000,A01A3A,5,1552116814000
1552116831640.6201171875,19,209.2000000000,A01A3A,5,1552116814000
1552116831656.2500000000,19,217.4600000000,A01A3A,5,1552116814000
1552116831671.8798828125,19,223.2200000000,A01A3A,5,1552116814000
1552116831687.5000000000,19,225.7700000000,A01A3A,5,1552116814000
1552116831703.1201171875,19,225.8800000000,A01A3A,5,1552116814000
1552116831718.7500000000,19,225.2700000000,A01A3A,5,1552116814000
1552116831734.3798828125,19,225.1700000000,A01A3A,5,1552116814000
1552116831750.0000000000,19,225.2900000000,A01A3A,5,1552116814000
1552116831765.6201171875,19,223.7500000000,A01A3A,5,1552116814000
1552116831781.2500000000,19,218.0700000000,A01A3A,5,1552116814000
1552116831796.8798828125,19,206.7000000000,A01A3A,5,1552116814000
1552116831812.5000000000,19,190.0400000000,A01A3A,5,1552116814000
1552116831828.1201171875,19,170.3400000000,A01A3A,5,1552116814000
1552116831843.7500000000,19,150.6100000000,A01A3A,5,1552116814000
1552116831859.3798828125,19,133.2200000000,A01A3A,5,1552116814000
1552116831875.0000000000,19,118.9400000000,A01A3A,5,1552116814000
1552116831890.6201171875,19,106.9300000000,A01A3A,5,1552116814000
1552116831906.2500000000,19,95.6100000000,A01A3A,5,1552116814000
1552116831921.8798828125,19,83.7300000000,A01A3A,5,1552116814000
1552116831937.5000000000,19,71.0000000000,A01A3A,5,1552116814000
1552116831953.1201171875,19,58.0900000000,A01A3A,5,1552116814000
1552116831968.7500000000,19,46.0400000000,A01A3A,5,1552116814000
1552116831984.3798828125,19,35.6900000000,A01A3A,5,1552116814000
1552116832000.0000000000,19,27.5500000000,A01A3A,5,1552116814000
1552116832015.6201171875,19,21.9800000000,A01A3A,5,1552116814000
1552116832031.2500000000,19,19.5400000000,A01A3A,5,1552116814000
1552116832046.8798828125,19,20.9700000000,A01A3A,5,1552116814000
1552116832062.5000000000,19,26.6700000000,A01A3A,5,1552116814000
1552116832078.1201171875,19,35.8300000000,A01A3A,5,1552116814000
1552116832093.7500000000,19,46.0300000000,A01A3A,5,1552116814000
1552116832109.3798828125,19,53.5100000000,A01A3A,5,1552116814000
1552116832125.0000000000,19,54.7000000000,A01A3A,5,1552116814000
1552116832140.6201171875,19,48.1400000000,A01A3A,5,1552116814000
1552116832156.2500000000,19,35.9300000000,A01A3A,5,1552116814000
1552116832171.8798828125,19,23.5400000000,A01A3A,5,1552116814000
1552116832187.5000000000,19,17.6500000000,A01A3A,5,1552116814000
1552116832203.1201171875,19,22.8700000000,A01A3A,5,1552116814000
1552116832218.7500000000,19,38.8400000000,A01A3A,5,1552116814000
1552116832234.3798828125,19,59.8400000000,A01A3A,5,1552116814000
1552116832250.0000000000,19,76.6900000000,A01A3A,5,1552116814000
1552116832265.6201171875,19,80.6600000000,A01A3A,5,1552116814000
1552116832281.2500000000,19,66.9700000000,A01A3A,5,1552116814000
1552116832296.8798828125,19,36.2900000000,A01A3A,5,1552116814000
1552116832312.5000000000,19,-6.7000000000,A01A3A,5,1552116814000
1552116832328.1201171875,19,-56.2800000000,A01A3A,5,1552116814000
1552116832343.7500000000,19,-108.0700000000,A01A3A,5,1552116814000
1552116832359.3798828125,19,-159.7000000000,A01A3A,5,1552116814000
1552116832375.0000000000,19,-208.9900000000,A01A3A,5,1552116814000
1552116832390.6201171875,19,-252.4000000000,A01A3A,5,1552116814000
1552116832406.2500000000,19,-284.8000000000,A01A3A,5,1552116814000
1552116832421.8798828125,19,-301.2000000000,A01A3A,5,1552116814000
1552116832437.5000000000,19,-299.4000000000,A01A3A,5,1552116814000
1552116832453.1201171875,19,-281.3700000000,A01A3A,5,1552116814000
1552116832468.7500000000,19,-252.5900000000,A01A3A,5,1552116814000
1552116832484.3798828125,19,-219.7700000000,A01A3A,5,1552116814000
1552116832500.0000000000,19,-188.2100000000,A01A3A,5,1552116814000
1552116832515.6201171875,19,-160.4700000000,A01A3A,5,1552116814000
1552116832531.2500000000,19,-136.6700000000,A01A3A,5,1552116814000
1552116832546.8798828125,19,-116.0600000000,A01A3A,5,1552116814000
1552116832562.5000000000,19,-98.6800000000,A01A3A,5,1552116814000
1552116832578.1201171875,19,-86.0600000000,A01A3A,5,1552116814000
1552116832593.7500000000,19,-80.4700000000,A01A3A,5,1552116814000
1552116832609.3798828125,19,-83.4800000000,A01A3A,5,1552116814000
1552116832625.0000000000,19,-94.3900000000,A01A3A,5,1552116814000
1552116832640.6201171875,19,-109.7200000000,A01A3A,5,1552116814000
1552116832656.2500000000,19,-123.8400000000,A01A3A,5,1552116814000
1552116832671.8798828125,19,-130.8600000000,A01A3A,5,1552116814000
1552116832687.5000000000,19,-126.6800000000,A01A3A,5,1552116814000
1552116832703.1201171875,19,-110.6500000000,A01A3A,5,1552116814000
1552116832718.7500000000,19,-86.1300000000,A01A3A,5,1552116814000
1552116832734.3798828125,19,-58.8100000000,A01A3A,5,1552116814000
1552116832750.0000000000,19,-34.4000000000,A01A3A,5,1552116814000
1552116832765.6201171875,19,-16.2800000000,A01A3A,5,1552116814000
1552116832781.2500000000,19,-4.5600000000,A01A3A,5,1552116814000
1552116832796.8798828125,19,2.9600000000,A01A3A,5,1552116814000
1552116832812.5000000000,19,8.9300000000,A01A3A,5,1552116814000
1552116832828.1201171875,19,14.6400000000,A01A3A,5,1552116814000
1552116832843.7500000000,19,19.8900000000,A01A3A,5,1552116814000
1552116832859.3798828125,19,23.3100000000,A01A3A,5,1552116814000
1552116832875.0000000000,19,23.8400000000,A01A3A,5,1552116814000
1552116832890.6201171875,19,21.5200000000,A01A3A,5,1552116814000
1552116832906.2500000000,19,17.5100000000,A01A3A,5,1552116814000
1552116832921.8798828125,19,13.6500000000,A01A3A,5,1552116814000
1552116832937.5000000000,19,11.4900000000,A01A3A,5,1552116814000
1552116832953.1201171875,19,11.6400000000,A01A3A,5,1552116814000
1552116832968.7500000000,19,13.6300000000,A01A3A,5,1552116814000
1552116832984.3798828125,19,16.2500000000,A01A3A,5,1552116814000
1552116833000.0000000000,19,18.1900000000,A01A3A,5,1552116814000
1552116833015.6201171875,19,18.6900000000,A01A3A,5,1552116814000
1552116833031.2500000000,19,17.8700000000,A01A3A,5,1552116814000
1552116833046.8798828125,19,16.5000000000,A01A3A,5,1552116814000
1552116833062.5000000000,19,15.5800000000,A01A3A,5,1552116814000
1552116833078.1201171875,19,15.7000000000,A01A3A,5,1552116814000
1552116833093.7500000000,19,16.6800000000,A01A3A,5,1552116814000
1552116833109.3798828125,19,17.7100000000,A01A3A,5,1552116814000
1552116833125.0000000000,19,17.6600000000,A01A3A,5,1552116814000
1552116833140.6201171875,19,15.7700000000,A01A3A,5,1552116814000
1552116833156.2500000000,19,11.9400000000,A01A3A,5,1552116814000
1552116833171.8798828125,19,6.7800000000,A01A3A,5,1552116814000
1552116833187.5000000000,19,1.2000000000,A01A3A,5,1552116814000
1552116833203.1201171875,19,-4.2100000000,A01A3A,5,1552116814000
1552116833218.7500000000,19,-9.4000000000,A01A3A,5,1552116814000
1552116833234.3798828125,19,-14.7800000000,A01A3A,5,1552116814000
1552116833250.0000000000,19,-20.6000000000,A01A3A,5,1552116814000
1552116833265.6201171875,19,-26.4400000000,A01A3A,5,1552116814000
1552116833281.2500000000,19,-30.9800000000,A01A3A,5,1552116814000
1552116833296.8798828125,19,-32.4200000000,A01A3A,5,1552116814000
1552116833312.5000000000,19,-29.3200000000,A01A3A,5,1552116814000
1552116833328.1201171875,19,-21.3200000000,A01A3A,5,1552116814000
1552116833343.7500000000,19,-9.4600000000,A01A3A,5,1552116814000
1552116833359.3798828125,19,4.1500000000,A01A3A,5,1552116814000
1552116833375.0000000000,19,17.1700000000,A01A3A,5,1552116814000
1552116833390.6201171875,19,27.7800000000,A01A3A,5,1552116814000
1552116833406.2500000000,19,35.1000000000,A01A3A,5,1552116814000
1552116833421.8798828125,19,39.1000000000,A01A3A,5,1552116814000
1552116833437.5000000000,19,40.1800000000,A01A3A,5,1552116814000
1552116833453.1201171875,19,38.7700000000,A01A3A,5,1552116814000
1552116833468.7500000000,19,35.2300000000,A01A3A,5,1552116814000
1552116833484.3798828125,19,29.8400000000,A01A3A,5,1552116814000
1552116833500.0000000000,19,23.0700000000,A01A3A,5,1552116814000
1552116833515.6201171875,19,15.6800000000,A01A3A,5,1552116814000
1552116833531.2500000000,19,8.6700000000,A01A3A,5,1552116814000
1552116833546.8798828125,19,3.0400000000,A01A3A,5,1552116814000
1552116833562.5000000000,19,-0.5700000000,A01A3A,5,1552116814000
1552116833578.1201171875,19,-2.0300000000,A01A3A,5,1552116814000
1552116833593.7500000000,19,-1.8000000000,A01A3A,5,1552116814000
1552116833609.3798828125,19,-0.6900000000,A01A3A,5,1552116814000
1552116833625.0000000000,19,0.4500000000,A01A3A,5,1552116814000
1552116833640.6201171875,19,1.0000000000,A01A3A,5,1552116814000
1552116833656.2500000000,19,0.7200000000,A01A3A,5,1552116814000
1552116833671.8798828125,19,-0.2800000000,A01A3A,5,1552116814000
1552116833687.5000000000,19,-1.7500000000,A01A3A,5,1552116814000
1552116833703.1201171875,19,-3.4700000000,A01A3A,5,1552116814000
1552116833718.7500000000,19,-5.3900000000,A01A3A,5,1552116814000
1552116833734.3798828125,19,-7.5900000000,A01A3A,5,1552116814000
1552116833750.0000000000,19,-10.2200000000,A01A3A,5,1552116814000
1552116833765.6201171875,19,-13.5000000000,A01A3A,5,1552116814000
1552116833781.2500000000,19,-17.6200000000,A01A3A,5,1552116814000
1552116833796.8798828125,19,-22.8500000000,A01A3A,5,1552116814000
1552116833812.5000000000,19,-29.4100000000,A01A3A,5,1552116814000
1552116833828.1201171875,19,-37.2900000000,A01A3A,5,1552116814000
1552116833843.7500000000,19,-46.0200000000,A01A3A,5,1552116814000
1552116833859.3798828125,19,-54.4800000000,A01A3A,5,1552116814000
1552116833875.0000000000,19,-60.9600000000,A01A3A,5,1552116814000
1552116833890.6201171875,19,-63.5600000000,A01A3A,5,1552116814000
1552116833906.2500000000,19,-60.8500000000,A01A3A,5,1552116814000
1552116833921.8798828125,19,-52.4200000000,A01A3A,5,1552116814000
1552116833937.5000000000,19,-39.2000000000,A01A3A,5,1552116814000
1552116833953.1201171875,19,-23.2100000000,A01A3A,5,1552116814000
1552116833968.7500000000,19,-6.9700000000,A01A3A,5,1552116814000
1552116833984.3798828125,19,7.3000000000,A01A3A,5,1552116814000
1552116834000.0000000000,19,18.2200000000,A01A3A,5,1552116814000
1552116834015.6201171875,19,25.3600000000,A01A3A,5,1552116814000
1552116834031.2500000000,19,28.9700000000,A01A3A,5,1552116814000
1552116834046.8798828125,19,29.5800000000,A01A3A,5,1552116814000
1552116834062.5000000000,19,27.6800000000,A01A3A,5,1552116814000
1552116834078.1201171875,19,23.7000000000,A01A3A,5,1552116814000
1552116834093.7500000000,19,18.1300000000,A01A3A,5,1552116814000
1552116834109.3798828125,19,11.7000000000,A01A3A,5,1552116814000
1552116834125.0000000000,19,5.4200000000,A01A3A,5,1552116814000
1552116834140.6201171875,19,0.3700000000,A01A3A,5,1552116814000
1552116834156.2500000000,19,-2.5000000000,A01A3A,5,1552116814000
1552116834171.8798828125,19,-2.6600000000,A01A3A,5,1552116814000
1552116834187.5000000000,19,-0.0900000000,A01A3A,5,1552116814000
1552116834203.1201171875,19,4.6800000000,A01A3A,5,1552116814000
1552116834218.7500000000,19,10.7800000000,A01A3A,5,1552116814000
1552116834234.3798828125,19,17.1500000000,A01A3A,5,1552116814000
1552116834250.0000000000,19,22.8400000000,A01A3A,5,1552116814000
1552116834265.6201171875,19,27.1500000000,A01A3A,5,1552116814000
1552116834281.2500000000,19,29.6800000000,A01A3A,5,1552116814000
1552116834296.8798828125,19,30.2700000000,A01A3A,5,1552116814000
1552116834312.5000000000,19,28.8500000000,A01A3A,5,1552116814000
1552116834328.1201171875,19,25.3600000000,A01A3A,5,1552116814000
1552116834343.7500000000,19,19.6700000000,A01A3A,5,1552116814000
1552116834359.3798828125,19,11.7600000000,A01A3A,5,1552116814000
1552116834375.0000000000,19,1.7600000000,A01A3A,5,1552116814000
1552116834390.6201171875,19,-9.9500000000,A01A3A,5,1552116814000
1552116834406.2500000000,19,-22.7900000000,A01A3A,5,1552116814000
1552116834421.8798828125,19,-35.9900000000,A01A3A,5,1552116814000
1552116834437.5000000000,19,-48.4900000000,A01A3A,5,1552116814000
1552116834453.1201171875,19,-58.9700000000,A01A3A,5,1552116814000
1552116834468.7500000000,19,-65.8100000000,A01A3A,5,1552116814000
1552116834484.3798828125,19,-67.4300000000,A01A3A,5,1552116814000
1552116834500.0000000000,19,-62.7700000000,A01A3A,5,1552116814000
1552116834515.6201171875,19,-51.8200000000,A01A3A,5,1552116814000
1552116834531.2500000000,19,-35.8500000000,A01A3A,5,1552116814000
1552116834546.8798828125,19,-17.1600000000,A01A3A,5,1552116814000
1552116834562.5000000000,19,1.5700000000,A01A3A,5,1552116814000
1552116834578.1201171875,19,18.0700000000,A01A3A,5,1552116814000
1552116834593.7500000000,19,31.1100000000,A01A3A,5,1552116814000
1552116834609.3798828125,19,40.4400000000,A01A3A,5,1552116814000
1552116834625.0000000000,19,46.5400000000,A01A3A,5,1552116814000
1552116834640.6201171875,19,50.0900000000,A01A3A,5,1552116814000
1552116834656.2500000000,19,51.6100000000,A01A3A,5,1552116814000
1552116834671.8798828125,19,51.3700000000,A01A3A,5,1552116814000
1552116834687.5000000000,19,49.5900000000,A01A3A,5,1552116814000
1552116834703.1201171875,19,46.6300000000,A01A3A,5,1552116814000
1552116834718.7500000000,19,43.2100000000,A01A3A,5,1552116814000
1552116834734.3798828125,19,40.2100000000,A01A3A,5,1552116814000
1552116834750.0000000000,19,38.4100000000,A01A3A,5,1552116814000
1552116834765.6201171875,19,38.1800000000,A01A3A,5,1552116814000
1552116834781.2500000000,19,39.2800000000,A01A3A,5,1552116814000
1552116834796.8798828125,19,40.9900000000,A01A3A,5,1552116814000
1552116834812.5000000000,19,42.3400000000,A01A3A,5,1552116814000
1552116834828.1201171875,19,42.5600000000,A01A3A,5,1552116814000
1552116834843.7500000000,19,41.2900000000,A01A3A,5,1552116814000
1552116834859.3798828125,19,38.5900000000,A01A3A,5,1552116814000
1552116834875.0000000000,19,34.8600000000,A01A3A,5,1552116814000
1552116834890.6201171875,19,30.5500000000,A01A3A,5,1552116814000
1552116834906.2500000000,19,25.9200000000,A01A3A,5,1552116814000
1552116834921.8798828125,19,21.0100000000,A01A3A,5,1552116814000
1552116834937.5000000000,19,15.6100000000,A01A3A,5,1552116814000
1552116834953.1201171875,19,9.3900000000,A01A3A,5,1552116814000
1552116834968.7500000000,19,2.0300000000,A01A3A,5,1552116814000
1552116834984.3798828125,19,-6.6900000000,A01A3A,5,1552116814000
1552116835000.0000000000,19,-16.6000000000,A01A3A,5,1552116814000
1552116835015.6201171875,19,-26.9900000000,A01A3A,5,1552116814000
1552116835031.2500000000,19,-36.4700000000,A01A3A,5,1552116814000
1552116835046.8798828125,19,-43.1900000000,A01A3A,5,1552116814000
1552116835062.5000000000,19,-45.3400000000,A01A3A,5,1552116814000
1552116835078.1201171875,19,-41.7300000000,A01A3A,5,1552116814000
1552116835093.7500000000,19,-32.3200000000,A01A3A,5,1552116814000
1552116835109.3798828125,19,-18.2400000000,A01A3A,5,1552116814000
1552116835125.0000000000,19,-1.5300000000,A01A3A,5,1552116814000
1552116835140.6201171875,19,15.5300000000,A01A3A,5,1552116814000
1552116835156.2500000000,19,31.0100000000,A01A3A,5,1552116814000
1552116835171.8798828125,19,43.6300000000,A01A3A,5,1552116814000
1552116835187.5000000000,19,52.7400000000,A01A3A,5,1552116814000
1552116835203.1201171875,19,58.0800000000,A01A3A,5,1552116814000
1552116835218.7500000000,19,59.5900000000,A01A3A,5,1552116814000
1552116835234.3798828125,19,57.3400000000,A01A3A,5,1552116814000
1552116835250.0000000000,19,51.7400000000,A01A3A,5,1552116814000
1552116835265.6201171875,19,43.6500000000,A01A3A,5,1552116814000
1552116835281.2500000000,19,34.4300000000,A01A3A,5,1552116814000
1552116835296.8798828125,19,25.7100000000,A01A3A,5,1552116814000
1552116835312.5000000000,19,18.9800000000,A01A3A,5,1552116814000
1552116835328.1201171875,19,15.1600000000,A01A3A,5,1552116814000
1552116835343.7500000000,19,14.3300000000,A01A3A,5,1552116814000
1552116835359.3798828125,19,15.7100000000,A01A3A,5,1552116814000
1552116835375.0000000000,19,18.0100000000,A01A3A,5,1552116814000
1552116835390.6201171875,19,19.9300000000,A01A3A,5,1552116814000
1552116835406.2500000000,19,20.6000000000,A01A3A,5,1552116814000
1552116835421.8798828125,19,19.8300000000,A01A3A,5,1552116814000
1552116835437.5000000000,19,18.0200000000,A01A3A,5,1552116814000
1552116835453.1201171875,19,15.7700000000,A01A3A,5,1552116814000
1552116835468.7500000000,19,13.5600000000,A01A3A,5,1552116814000
1552116835484.3798828125,19,11.4500000000,A01A3A,5,1552116814000
1552116835500.0000000000,19,9.0700000000,A01A3A,5,1552116814000
1552116835515.6201171875,19,5.8900000000,A01A3A,5,1552116814000
1552116835531.2500000000,19,1.4100000000,A01A3A,5,1552116814000
1552116835546.8798828125,19,-4.5900000000,A01A3A,5,1552116814000
1552116835562.5000000000,19,-11.9900000000,A01A3A,5,1552116814000
1552116835578.1201171875,19,-20.3200000000,A01A3A,5,1552116814000
1552116835593.7500000000,19,-28.7500000000,A01A3A,5,1552116814000
1552116835609.3798828125,19,-36.0500000000,A01A3A,5,1552116814000
1552116835625.0000000000,19,-40.6400000000,A01A3A,5,1552116814000
1552116835640.6201171875,19,-40.8900000000,A01A3A,5,1552116814000
1552116835656.2500000000,19,-35.5800000000,A01A3A,5,1552116814000
1552116835671.8798828125,19,-24.4500000000,A01A3A,5,1552116814000
1552116835687.5000000000,19,-8.5700000000,A01A3A,5,1552116814000
1552116835703.1201171875,19,9.9100000000,A01A3A,5,1552116814000
1552116835718.7500000000,19,28.2400000000,A01A3A,5,1552116814000
1552116835734.3798828125,19,44.0100000000,A01A3A,5,1552116814000
1552116835750.0000000000,19,55.6900000000,A01A3A,5,1552116814000
1552116835765.6201171875,19,62.9500000000,A01A3A,5,1552116814000
1552116835781.2500000000,19,66.2700000000,A01A3A,5,1552116814000
1552116835796.8798828125,19,66.4300000000,A01A3A,5,1552116814000
1552116835812.5000000000,19,64.0100000000,A01A3A,5,1552116814000
1552116835828.1201171875,19,59.2400000000,A01A3A,5,1552116814000
1552116835843.7500000000,19,52.2300000000,A01A3A,5,1552116814000
1552116835859.3798828125,19,43.3700000000,A01A3A,5,1552116814000
1552116835875.0000000000,19,33.6100000000,A01A3A,5,1552116814000
1552116835890.6201171875,19,24.4000000000,A01A3A,5,1552116814000
1552116835906.2500000000,19,17.3000000000,A01A3A,5,1552116814000
1552116835921.8798828125,19,13.3800000000,A01A3A,5,1552116814000
1552116835937.5000000000,19,12.8900000000,A01A3A,5,1552116814000
1552116835953.1201171875,19,15.0900000000,A01A3A,5,1552116814000
1552116835968.7500000000,19,18.5700000000,A01A3A,5,1552116814000
1552116835984.3798828125,19,21.8400000000,A01A3A,5,1552116814000
1552116836000.0000000000,19,23.8200000000,A01A3A,5,1552116814000
1552116836015.6201171875,19,24.2000000000,A01A3A,5,1552116814000
1552116836031.2500000000,19,23.3300000000,A01A3A,5,1552116814000
1552116836046.8798828125,19,21.8000000000,A01A3A,5,1552116814000
1552116836062.5000000000,19,20.1100000000,A01A3A,5,1552116814000
1552116836078.1201171875,19,18.3400000000,A01A3A,5,1552116814000
1552116836093.7500000000,19,16.2400000000,A01A3A,5,1552116814000
1552116836109.3798828125,19,13.3500000000,A01A3A,5,1552116814000
1552116836125.0000000000,19,9.2800000000,A01A3A,5,1552116814000
1552116836140.6201171875,19,3.7900000000,A01A3A,5,1552116814000
1552116836156.2500000000,19,-3.2300000000,A01A3A,5,1552116814000
1552116836171.8798828125,19,-11.7500000000,A01A3A,5,1552116814000
1552116836187.5000000000,19,-21.3600000000,A01A3A,5,1552116814000
1552116836203.1201171875,19,-31.0800000000,A01A3A,5,1552116814000
1552116836218.7500000000,19,-39.1700000000,A01A3A,5,1552116814000
1552116836234.3798828125,19,-43.4100000000,A01A3A,5,1552116814000
1552116836250.0000000000,19,-41.7300000000,A01A3A,5,1552116814000
1552116836265.6201171875,19,-33.1200000000,A01A3A,5,1552116814000
1552116836281.2500000000,19,-18.2200000000,A01A3A,5,1552116814000
1552116836296.8798828125,19,0.7200000000,A01A3A,5,1552116814000
1552116836312.5000000000,19,20.5200000000,A01A3A,5,1552116814000
1552116836328.1201171875,19,38.1900000000,A01A3A,5,1552116814000
1552116836343.7500000000,19,51.7700000000,A01A3A,5,1552116814000
1552116836359.3798828125,19,60.6700000000,A01A3A,5,1552116814000
1552116836375.0000000000,19,65.3600000000,A01A3A,5,1552116814000
1552116836390.6201171875,19,66.6200000000,A01A3A,5,1552116814000
1552116836406.2500000000,19,64.9300000000,A01A3A,5,1552116814000
1552116836421.8798828125,19,60.3200000000,A01A3A,5,1552116814000
1552116836437.5000000000,19,52.6200000000,A01A3A,5,1552116814000
1552116836453.1201171875,19,42.0900000000,A01A3A,5,1552116814000
1552116836468.7500000000,19,29.7100000000,A01A3A,5,1552116814000
1552116836484.3798828125,19,17.1800000000,A01A3A,5,1552116814000
1552116836500.0000000000,19,6.4300000000,A01A3A,5,1552116814000
1552116836515.6201171875,19,-1.0700000000,A01A3A,5,1552116814000
1552116836531.2500000000,19,-4.9100000000,A01A3A,5,1552116814000
1552116836546.8798828125,19,-5.8300000000,A01A3A,5,1552116814000
1552116836562.5000000000,19,-5.4400000000,A01A3A,5,1552116814000
1552116836578.1201171875,19,-5.5600000000,A01A3A,5,1552116814000
1552116836593.7500000000,19,-7.5200000000,A01A3A,5,1552116814000
1552116836609.3798828125,19,-11.6600000000,A01A3A,5,1552116814000
1552116836625.0000000000,19,-17.4200000000,A01A3A,5,1552116814000
1552116836640.6201171875,19,-23.7100000000,A01A3A,5,1552116814000
1552116836656.2500000000,19,-29.4400000000,A01A3A,5,1552116814000
1552116836671.8798828125,19,-34.0300000000,A01A3A,5,1552116814000
1552116836687.5000000000,19,-37.5700000000,A01A3A,5,1552116814000
1552116836703.1201171875,19,-40.6800000000,A01A3A,5,1552116814000
1552116836718.7500000000,19,-44.1700000000,A01A3A,5,1552116814000
1552116836734.3798828125,19,-48.7000000000,A01A3A,5,1552116814000
1552116836750.0000000000,19,-54.5200000000,A01A3A,5,1552116814000
1552116836765.6201171875,19,-61.3300000000,A01A3A,5,1552116814000
1552116836781.2500000000,19,-68.1400000000,A01A3A,5,1552116814000
1552116836796.8798828125,19,-73.3600000000,A01A3A,5,1552116814000
1552116836812.5000000000,19,-74.9900000000,A01A3A,5,1552116814000
1552116836828.1201171875,19,-71.1500000000,A01A3A,5,1552116814000
1552116836843.7500000000,19,-60.6200000000,A01A3A,5,1552116814000
1552116836859.3798828125,19,-43.5100000000,A01A3A,5,1552116814000
1552116836875.0000000000,19,-21.3900000000,A01A3A,5,1552116814000
1552116836890.6201171875,19,2.9600000000,A01A3A,5,1552116814000
1552116836906.2500000000,19,26.3900000000,A01A3A,5,1552116814000
1552116836921.8798828125,19,46.2100000000,A01A3A,5,1552116814000
1552116836937.5000000000,19,60.8200000000,A01A3A,5,1552116814000
1552116836953.1201171875,19,69.8400000000,A01A3A,5,1552116814000
1552116836968.7500000000,19,73.7000000000,A01A3A,5,1552116814000
1552116836984.3798828125,19,73.2100000000,A01A3A,5,1552116814000
1552116837000.0000000000,19,69.1400000000,A01A3A,5,1552116814000
1552116837015.6201171875,19,62.2000000000,A01A3A,5,1552116814000
1552116837031.2500000000,19,53.2200000000,A01A3A,5,1552116814000
1552116837046.8798828125,19,43.2900000000,A01A3A,5,1552116814000
1552116837062.5000000000,19,33.8000000000,A01A3A,5,1552116814000
1552116837078.1201171875,19,26.1600000000,A01A3A,5,1552116814000
1552116837093.7500000000,19,21.4000000000,A01A3A,5,1552116814000
1552116837109.3798828125,19,19.8200000000,A01A3A,5,1552116814000
1552116837125.0000000000,19,20.8600000000,A01A3A,5,1552116814000
1552116837140.6201171875,19,23.2600000000,A01A3A,5,1552116814000
1552116837156.2500000000,19,25.5200000000,A01A3A,5,1552116814000
1552116837171.8798828125,19,26.3500000000,A01A3A,5,1552116814000
1552116837187.5000000000,19,25.1000000000,A01A3A,5,1552116814000
1552116837203.1201171875,19,21.8200000000,A01A3A,5,1552116814000
1552116837218.7500000000,19,17.1100000000,A01A3A,5,1552116814000
1552116837234.3798828125,19,11.7400000000,A01A3A,5,1552116814000
1552116837250.0000000000,19,6.3500000000,A01A3A,5,1552116814000
1552116837265.6201171875,19,1.1600000000,A01A3A,5,1552116814000
1552116837281.2500000000,19,-3.9400000000,A01A3A,5,1552116814000
1552116837296.8798828125,19,-9.1900000000,A01A3A,5,1552116814000
1552116837312.5000000000,19,-14.8600000000,A01A3A,5,1552116814000
1552116837328.1201171875,19,-21.1400000000,A01A3A,5,1552116814000
1552116837343.7500000000,19,-28.1100000000,A01A3A,5,1552116814000
1552116837359.3798828125,19,-35.6500000000,A01A3A,5,1552116814000
1552116837375.0000000000,19,-43.2600000000,A01A3A,5,1552116814000
1552116837390.6201171875,19,-49.9800000000,A01A3A,5,1552116814000
1552116837406.2500000000,19,-54.4400000000,A01A3A,5,1552116814000
1552116837421.8798828125,19,-55.1600000000,A01A3A,5,1552116814000
1552116837437.5000000000,19,-51.1700000000,A01A3A,5,1552116814000
1552116837453.1201171875,19,-42.4400000000,A01A3A,5,1552116814000
1552116837468.7500000000,19,-30.0600000000,A01A3A,5,1552116814000
1552116837484.3798828125,19,-15.8400000000,A01A3A,5,1552116814000
1552116837500.0000000000,19,-1.7700000000,A01A3A,5,1552116814000
1552116837515.6201171875,19,10.6500000000,A01A3A,5,1552116814000
1552116837531.2500000000,19,20.6100000000,A01A3A,5,1552116814000
1552116837546.8798828125,19,27.8500000000,A01A3A,5,1552116814000
1552116837562.5000000000,19,32.2500000000,A01A3A,5,1552116814000
1552116837578.1201171875,19,33.5900000000,A01A3A,5,1552116814000
1552116837593.7500000000,19,31.5400000000,A01A3A,5,1552116814000
1552116837609.3798828125,19,25.9900000000,A01A3A,5,1552116814000
1552116837625.0000000000,19,17.4200000000,A01A3A,5,1552116814000
1552116837640.6201171875,19,7.0600000000,A01A3A,5,1552116814000
1552116837656.2500000000,19,-3.2300000000,A01A3A,5,1552116814000
1552116837671.8798828125,19,-11.4800000000,A01A3A,5,1552116814000
1552116837687.5000000000,19,-16.0400000000,A01A3A,5,1552116814000
1552116837703.1201171875,19,-16.0400000000,A01A3A,5,1552116814000
1552116837718.7500000000,19,-11.7000000000,A01A3A,5,1552116814000
1552116837734.3798828125,19,-4.1900000000,A01A3A,5,1552116814000
1552116837750.0000000000,19,4.6500000000,A01A3A,5,1552116814000
1552116837765.6201171875,19,12.8400000000,A01A3A,5,1552116814000
1552116837781.2500000000,19,18.8100000000,A01A3A,5,1552116814000
1552116837796.8798828125,19,21.7700000000,A01A3A,5,1552116814000
1552116837812.5000000000,19,21.8500000000,A01A3A,5,1552116814000
1552116837828.1201171875,19,19.8100000000,A01A3A,5,1552116814000
1552116837843.7500000000,19,16.6300000000,A01A3A,5,1552116814000
1552116837859.3798828125,19,13.0000000000,A01A3A,5,1552116814000
1552116837875.0000000000,19,9.1200000000,A01A3A,5,1552116814000
1552116837890.6201171875,19,4.6200000000,A01A3A,5,1552116814000
1552116837906.2500000000,19,-1.1400000000,A01A3A,5,1552116814000
1552116837921.8798828125,19,-8.6500000000,A01A3A,5,1552116814000
1552116837937.5000000000,19,-17.8500000000,A01A3A,5,1552116814000
1552116837953.1201171875,19,-27.8200000000,A01A3A,5,1552116814000
1552116837968.7500000000,19,-36.8400000000,A01A3A,5,1552116814000
1552116837984.3798828125,19,-42.7000000000,A01A3A,5,1552116814000
1552116838000.0000000000,19,-43.3600000000,A01A3A,5,1552116814000
1552116838015.6201171875,19,-37.6800000000,A01A3A,5,1552116814000
1552116838031.2500000000,19,-25.9000000000,A01A3A,5,1552116814000
1552116838046.8798828125,19,-9.6400000000,A01A3A,5,1552116814000
1552116838062.5000000000,19,8.5400000000,A01A3A,5,1552116814000
1552116838078.1201171875,19,26.0200000000,A01A3A,5,1552116814000
1552116838093.7500000000,19,40.7800000000,A01A3A,5,1552116814000
1552116838109.3798828125,19,51.8400000000,A01A3A,5,1552116814000
1552116838125.0000000000,19,59.0300000000,A01A3A,5,1552116814000
1552116838140.6201171875,19,62.5800000000,A01A3A,5,1552116814000
1552116838156.2500000000,19,62.7300000000,A01A3A,5,1552116814000
1552116838171.8798828125,19,59.5500000000,A01A3A,5,1552116814000
1552116838187.5000000000,19,53.2200000000,A01A3A,5,1552116814000
1552116838203.1201171875,19,44.3600000000,A01A3A,5,1552116814000
1552116838218.7500000000,19,34.2000000000,A01A3A,5,1552116814000
1552116838234.3798828125,19,24.4900000000,A01A3A,5,1552116814000
1552116838250.0000000000,19,16.9600000000,A01A3A,5,1552116814000
1552116838265.6201171875,19,12.7400000000,A01A3A,5,1552116814000
1552116838281.2500000000,19,11.9900000000,A01A3A,5,1552116814000
1552116838296.8798828125,19,13.8000000000,A01A3A,5,1552116814000
1552116838312.5000000000,19,16.6200000000,A01A3A,5,1552116814000
1552116838328.1201171875,19,18.7700000000,A01A3A,5,1552116814000
1552116838343.7500000000,19,19.0900000000,A01A3A,5,1552116814000
1552116838359.3798828125,19,17.2500000000,A01A3A,5,1552116814000
1552116838375.0000000000,19,13.7800000000,A01A3A,5,1552116814000
1552116838390.6201171875,19,9.7500000000,A01A3A,5,1552116814000
1552116838406.2500000000,19,6.2400000000,A01A3A,5,1552116814000
1552116838421.8798828125,19,3.8400000000,A01A3A,5,1552116814000
1552116838437.5000000000,19,2.4500000000,A01A3A,5,1552116814000
1552116838453.1201171875,19,1.3600000000,A01A3A,5,1552116814000
1552116838468.7500000000,19,-0.4200000000,A01A3A,5,1552116814000
1552116838484.3798828125,19,-3.7400000000,A01A3A,5,1552116814000
1552116838500.0000000000,19,-9.0000000000,A01A3A,5,1552116814000
1552116838515.6201171875,19,-16.0800000000,A01A3A,5,1552116814000
1552116838531.2500000000,19,-24.3800000000,A01A3A,5,1552116814000
1552116838546.8798828125,19,-32.8800000000,A01A3A,5,1552116814000
1552116838562.5000000000,19,-40.2400000000,A01A3A,5,1552116814000
1552116838578.1201171875,19,-44.8400000000,A01A3A,5,1552116814000
1552116838593.7500000000,19,-45.1200000000,A01A3A,5,1552116814000
1552116838609.3798828125,19,-39.9500000000,A01A3A,5,1552116814000
1552116838625.0000000000,19,-29.1700000000,A01A3A,5,1552116814000
1552116838640.6201171875,19,-13.8800000000,A01A3A,5,1552116814000
1552116838656.2500000000,19,3.6600000000,A01A3A,5,1552116814000
1552116838671.8798828125,19,20.6900000000,A01A3A,5,1552116814000
1552116838687.5000000000,19,34.7700000000,A01A3A,5,1552116814000
1552116838703.1201171875,19,44.4900000000,A01A3A,5,1552116814000
1552116838718.7500000000,19,49.6500000000,A01A3A,5,1552116814000
1552116838734.3798828125,19,50.9900000000,A01A3A,5,1552116814000
1552116838750.0000000000,19,49.4100000000,A01A3A,5,1552116814000
1552116838765.6201171875,19,45.6000000000,A01A3A,5,1552116814000
1552116838781.2500000000,19,39.8400000000,A01A3A,5,1552116814000
1552116838796.8798828125,19,32.3300000000,A01A3A,5,1552116814000
1552116838812.5000000000,19,23.6000000000,A01A3A,5,1552116814000
1552116838828.1201171875,19,14.7400000000,A01A3A,5,1552116814000
1552116838843.7500000000,19,7.1900000000,A01A3A,5,1552116814000
1552116838859.3798828125,19,2.2800000000,A01A3A,5,1552116814000
1552116838875.0000000000,19,0.6100000000,A01A3A,5,1552116814000
1552116838890.6201171875,19,1.8300000000,A01A3A,5,1552116814000
1552116838906.2500000000,19,4.7600000000,A01A3A,5,1552116814000
1552116838921.8798828125,19,7.9300000000,A01A3A,5,1552116814000
1552116838937.5000000000,19,10.1300000000,A01A3A,5,1552116814000
1552116838953.1201171875,19,10.8100000000,A01A3A,5,1552116814000
1552116838968.7500000000,19,10.1000000000,A01A3A,5,1552116814000
1552116838984.3798828125,19,8.6000000000,A01A3A,5,1552116814000
1552116839000.0000000000,19,6.8900000000,A01A3A,5,1552116814000
1552116839015.6201171875,19,5.2900000000,A01A3A,5,1552116814000
1552116839031.2500000000,19,3.7100000000,A01A3A,5,1552116814000
1552116839046.8798828125,19,1.7300000000,A01A3A,5,1552116814000
1552116839062.5000000000,19,-1.1500000000,A01A3A,5,1552116814000
1552116839078.1201171875,19,-5.3200000000,A01A3A,5,1552116814000
1552116839093.7500000000,19,-10.9300000000,A01A3A,5,1552116814000
1552116839109.3798828125,19,-17.9100000000,A01A3A,5,1552116814000
1552116839125.0000000000,19,-25.9300000000,A01A3A,5,1552116814000
1552116839140.6201171875,19,-34.3800000000,A01A3A,5,1552116814000
1552116839156.2500000000,19,-42.2700000000,A01A3A,5,1552116814000
1552116839171.8798828125,19,-48.2100000000,A01A3A,5,1552116814000
1552116839187.5000000000,19,-50.6000000000,A01A3A,5,1552116814000
1552116839203.1201171875,19,-48.0400000000,A01A3A,5,1552116814000
1552116839218.7500000000,19,-39.9500000000,A01A3A,5,1552116814000
1552116839234.3798828125,19,-26.9800000000,A01A3A,5,1552116814000
1552116839250.0000000000,19,-11.0300000000,A01A3A,5,1552116814000
1552116839265.6201171875,19,5.1400000000,A01A3A,5,1552116814000
1552116839281.2500000000,19,18.7600000000,A01A3A,5,1552116814000
1552116839296.8798828125,19,27.8700000000,A01A3A,5,1552116814000
1552116839312.5000000000,19,31.7300000000,A01A3A,5,1552116814000
1552116839328.1201171875,19,30.7400000000,A01A3A,5,1552116814000
1552116839343.7500000000,19,25.9500000000,A01A3A,5,1552116814000
1552116839359.3798828125,19,18.5000000000,A01A3A,5,1552116814000
1552116839375.0000000000,19,9.3200000000,A01A3A,5,1552116814000
1552116839390.6201171875,19,-0.9300000000,A01A3A,5,1552116814000
1552116839406.2500000000,19,-11.5300000000,A01A3A,5,1552116814000
1552116839421.8798828125,19,-21.5400000000,A01A3A,5,1552116814000
1552116839437.5000000000,19,-29.8400000000,A01A3A,5,1552116814000
1552116839453.1201171875,19,-35.3700000000,A01A3A,5,1552116814000
1552116839468.7500000000,19,-37.5900000000,A01A3A,5,1552116814000
1552116839484.3798828125,19,-36.7200000000,A01A3A,5,1552116814000
1552116839500.0000000000,19,-33.6700000000,A01A3A,5,1552116814000
1552116839515.6201171875,19,-29.7000000000,A01A3A,5,1552116814000
1552116839531.2500000000,19,-25.9200000000,A01A3A,5,1552116814000
1552116839546.8798828125,19,-22.8800000000,A01A3A,5,1552116814000
1552116839562.5000000000,19,-20.5100000000,A01A3A,5,1552116814000
1552116839578.1201171875,19,-18.3600000000,A01A3A,5,1552116814000
1552116839593.7500000000,19,-15.9800000000,A01A3A,5,1552116814000
1552116839609.3798828125,19,-13.1900000000,A01A3A,5,1552116814000
1552116839625.0000000000,19,-10.2900000000,A01A3A,5,1552116814000
1552116839640.6201171875,19,-7.8000000000,A01A3A,5,1552116814000
1552116839656.2500000000,19,-6.3000000000,A01A3A,5,1552116814000
1552116839671.8798828125,19,-6.1700000000,A01A3A,5,1552116814000
1552116839687.5000000000,19,-7.5500000000,A01A3A,5,1552116814000
1552116839703.1201171875,19,-10.2800000000,A01A3A,5,1552116814000
1552116839718.7500000000,19,-14.0600000000,A01A3A,5,1552116814000
1552116839734.3798828125,19,-18.2900000000,A01A3A,5,1552116814000
1552116839750.0000000000,19,-22.0800000000,A01A3A,5,1552116814000
1552116839765.6201171875,19,-24.1700000000,A01A3A,5,1552116814000
1552116839781.2500000000,19,-23.1000000000,A01A3A,5,1552116814000
1552116839796.8798828125,19,-17.5500000000,A01A3A,5,1552116814000
1552116839812.5000000000,19,-6.9000000000,A01A3A,5,1552116814000
1552116839828.1201171875,19,8.4800000000,A01A3A,5,1552116814000
1552116839843.7500000000,19,27.1400000000,A01A3A,5,1552116814000
1552116839859.3798828125,19,46.8500000000,A01A3A,5,1552116814000
1552116839875.0000000000,19,65.1900000000,A01A3A,5,1552116814000
1552116839890.6201171875,19,80.2000000000,A01A3A,5,1552116814000
1552116839906.2500000000,19,90.7500000000,A01A3A,5,1552116814000
1552116839921.8798828125,19,96.5900000000,A01A3A,5,1552116814000
1552116839937.5000000000,19,98.1500000000,A01A3A,5,1552116814000
1552116839953.1201171875,19,96.1400000000,A01A3A,5,1552116814000
1552116839968.7500000000,19,91.3300000000,A01A3A,5,1552116814000
1552116839984.3798828125,19,84.4300000000,A01A3A,5,1552116814000
1552116840000.0000000000,19,76.1900000000,A01A3A,5,1552116814000
1552116840015.6201171875,19,67.4400000000,A01A3A,5,1552116814000
1552116840031.2500000000,19,59.1200000000,A01A3A,5,1552116814000
1552116840046.8798828125,19,52.0500000000,A01A3A,5,1552116814000
1552116840062.5000000000,19,46.7100000000,A01A3A,5,1552116814000
1552116840078.1201171875,19,43.0200000000,A01A3A,5,1552116814000
1552116840093.7500000000,19,40.3900000000,A01A3A,5,1552116814000
1552116840109.3798828125,19,37.8300000000,A01A3A,5,1552116814000
1552116840125.0000000000,19,34.3800000000,A01A3A,5,1552116814000
1552116840140.6201171875,19,29.4600000000,A01A3A,5,1552116814000
1552116840156.2500000000,19,22.9500000000,A01A3A,5,1552116814000
1552116840171.8798828125,19,15.2400000000,A01A3A,5,1552116814000
1552116840187.5000000000,19,6.9800000000,A01A3A,5,1552116814000
1552116840203.1201171875,19,-1.2400000000,A01A3A,5,1552116814000
1552116840218.7500000000,19,-9.0900000000,A01A3A,5,1552116814000
1552116840234.3798828125,19,-16.5200000000,A01A3A,5,1552116814000
1552116840250.0000000000,19,-23.7100000000,A01A3A,5,1552116814000
1552116840265.6201171875,19,-30.9000000000,A01A3A,5,1552116814000
1552116840281.2500000000,19,-38.2500000000,A01A3A,5,1552116814000
1552116840296.8798828125,19,-45.8700000000,A01A3A,5,1552116814000
1552116840312.5000000000,19,-53.7600000000,A01A3A,5,1552116814000
1552116840328.1201171875,19,-61.8200000000,A01A3A,5,1552116814000
1552116840343.7500000000,19,-69.6800000000,A01A3A,5,1552116814000
1552116840359.3798828125,19,-76.5300000000,A01A3A,5,1552116814000
1552116840375.0000000000,19,-81.1500000000,A01A3A,5,1552116814000
1552116840390.6201171875,19,-82.1700000000,A01A3A,5,1552116814000
1552116840406.2500000000,19,-78.5200000000,A01A3A,5,1552116814000
1552116840421.8798828125,19,-69.9800000000,A01A3A,5,1552116814000
1552116840437.5000000000,19,-57.4200000000,A01A3A,5,1552116814000
1552116840453.1201171875,19,-42.5600000000,A01A3A,5,1552116814000
1552116840468.7500000000,19,-27.4700000000,A01A3A,5,1552116814000
1552116840484.3798828125,19,-13.8200000000,A01A3A,5,1552116814000
1552116840500.0000000000,19,-2.5200000000,A01A3A,5,1552116814000
1552116840515.6201171875,19,6.3400000000,A01A3A,5,1552116814000
1552116840531.2500000000,19,13.1600000000,A01A3A,5,1552116814000
1552116840546.8798828125,19,18.3400000000,A01A3A,5,1552116814000
1552116840562.5000000000,19,22.0800000000,A01A3A,5,1552116814000
1552116840578.1201171875,19,24.3300000000,A01A3A,5,1552116814000
1552116840593.7500000000,19,25.1200000000,A01A3A,5,1552116814000
1552116840609.3798828125,19,24.7200000000,A01A3A,5,1552116814000
1552116840625.0000000000,19,23.7300000000,A01A3A,5,1552116814000
1552116840640.6201171875,19,22.9500000000,A01A3A,5,1552116814000
1552116840656.2500000000,19,23.0200000000,A01A3A,5,1552116814000
1552116840671.8798828125,19,24.2700000000,A01A3A,5,1552116814000
1552116840687.5000000000,19,26.5200000000,A01A3A,5,1552116814000
1552116840703.1201171875,19,29.2500000000,A01A3A,5,1552116814000
1552116840718.7500000000,19,31.7600000000,A01A3A,5,1552116814000
1552116840734.3798828125,19,33.4200000000,A01A3A,5,1552116814000
1552116840750.0000000000,19,33.8200000000,A01A3A,5,1552116814000
1552116840765.6201171875,19,32.8600000000,A01A3A,5,1552116814000
1552116840781.2500000000,19,30.6600000000,A01A3A,5,1552116814000
1552116840796.8798828125,19,27.5200000000,A01A3A,5,1552116814000
1552116840812.5000000000,19,23.7800000000,A01A3A,5,1552116814000
1552116840828.1201171875,19,19.7500000000,A01A3A,5,1552116814000
1552116840843.7500000000,19,15.6500000000,A01A3A,5,1552116814000
1552116840859.3798828125,19,11.5600000000,A01A3A,5,1552116814000
1552116840875.0000000000,19,7.5200000000,A01A3A,5,1552116814000
1552116840890.6201171875,19,3.4400000000,A01A3A,5,1552116814000
1552116840906.2500000000,19,-0.8900000000,A01A3A,5,1552116814000
1552116840921.8798828125,19,-5.7800000000,A01A3A,5,1552116814000
1552116840937.5000000000,19,-11.4800000000,A01A3A,5,1552116814000
1552116840953.1201171875,19,-17.9200000000,A01A3A,5,1552116814000
1552116840968.7500000000,19,-24.5100000000,A01A3A,5,1552116814000
1552116840984.3798828125,19,-30.0100000000,A01A3A,5,1552116814000
1552116841000.0000000000,19,-32.8300000000,A01A3A,5,1552116814000
1552116841015.6201171875,19,-31.5800000000,A01A3A,5,1552116814000
1552116841031.2500000000,19,-25.7300000000,A01A3A,5,1552116814000
1552116841046.8798828125,19,-15.9600000000,A01A3A,5,1552116814000
1552116841062.5000000000,19,-4.0600000000,A01A3A,5,1552116814000
1552116841078.1201171875,19,7.6500000000,A01A3A,5,1552116814000
1552116841093.7500000000,19,17.1600000000,A01A3A,5,1552116814000
1552116841109.3798828125,19,23.4700000000,A01A3A,5,1552116814000
1552116841125.0000000000,19,26.6300000000,A01A3A,5,1552116814000
1552116841140.6201171875,19,27.4500000000,A01A3A,5,1552116814000
1552116841156.2500000000,19,26.8400000000,A01A3A,5,1552116814000
1552116841171.8798828125,19,25.3500000000,A01A3A,5,1552116814000
1552116841187.5000000000,19,23.0600000000,A01A3A,5,1552116814000
1552116841203.1201171875,19,19.8100000000,A01A3A,5,1552116814000
1552116841218.7500000000,19,15.6800000000,A01A3A,5,1552116814000
1552116841234.3798828125,19,11.2000000000,A01A3A,5,1552116814000
1552116841250.0000000000,19,7.3500000000,A01A3A,5,1552116814000
1552116841265.6201171875,19,5.1800000000,A01A3A,5,1552116814000
1552116841281.2500000000,19,5.3900000000,A01A3A,5,1552116814000
1552116841296.8798828125,19,8.0900000000,A01A3A,5,1552116814000
1552116841312.5000000000,19,12.7600000000,A01A3A,5,1552116814000
1552116841328.1201171875,19,18.4900000000,A01A3A,5,1552116814000
1552116841343.7500000000,19,24.2600000000,A01A3A,5,1552116814000
1552116841359.3798828125,19,29.0300000000,A01A3A,5,1552116814000
1552116841375.0000000000,19,31.7500000000,A01A3A,5,1552116814000
1552116841390.6201171875,19,31.3900000000,A01A3A,5,1552116814000
1552116841406.2500000000,19,27.0400000000,A01A3A,5,1552116814000
1552116841421.8798828125,19,18.2400000000,A01A3A,5,1552116814000
1552116841437.5000000000,19,5.3500000000,A01A3A,5,1552116814000
1552116841453.1201171875,19,-10.3000000000,A01A3A,5,1552116814000
1552116841468.7500000000,19,-26.5500000000,A01A3A,5,1552116814000
1552116841484.3798828125,19,-40.9500000000,A01A3A,5,1552116814000
1552116841500.0000000000,19,-51.5500000000,A01A3A,5,1552116814000
1552116841515.6201171875,19,-57.4100000000,A01A3A,5,1552116814000
1552116841531.2500000000,19,-58.9000000000,A01A3A,5,1552116814000
1552116841546.8798828125,19,-57.2500000000,A01A3A,5,1552116814000
1552116841562.5000000000,19,-53.8700000000,A01A3A,5,1552116814000
1552116841578.1201171875,19,-49.4400000000,A01A3A,5,1552116814000
1552116841593.7500000000,19,-43.4700000000,A01A3A,5,1552116814000
1552116841609.3798828125,19,-34.4600000000,A01A3A,5,1552116814000
1552116841625.0000000000,19,-20.5600000000,A01A3A,5,1552116814000
1552116841640.6201171875,19,-0.7100000000,A01A3A,5,1552116814000
1552116841656.2500000000,19,24.5900000000,A01A3A,5,1552116814000
1552116841671.8798828125,19,53.0700000000,A01A3A,5,1552116814000
1552116841687.5000000000,19,81.4100000000,A01A3A,5,1552116814000
1552116841703.1201171875,19,106.0600000000,A01A3A,5,1552116814000
1552116841718.7500000000,19,124.2400000000,A01A3A,5,1552116814000
1552116841734.3798828125,19,134.2000000000,A01A3A,5,1552116814000
1552116841750.0000000000,19,134.8900000000,A01A3A,5,1552116814000
1552116841765.6201171875,19,125.3700000000,A01A3A,5,1552116814000
1552116841781.2500000000,19,104.5200000000,A01A3A,5,1552116814000
1552116841796.8798828125,19,71.5800000000,A01A3A,5,1552116814000
1552116841812.5000000000,19,27.1400000000,A01A3A,5,1552116814000
1552116841828.1201171875,19,-26.0700000000,A01A3A,5,1552116814000
1552116841843.7500000000,19,-83.3700000000,A01A3A,5,1552116814000
1552116841859.3798828125,19,-139.4000000000,A01A3A,5,1552116814000
1552116841875.0000000000,19,-189.6200000000,A01A3A,5,1552116814000
1552116841890.6201171875,19,-231.3300000000,A01A3A,5,1552116814000
1552116841906.2500000000,19,-263.2600000000,A01A3A,5,1552116814000
1552116841921.8798828125,19,-284.6300000000,A01A3A,5,1552116814000
1552116841937.5000000000,19,-294.2800000000,A01A3A,5,1552116814000
1552116841953.1201171875,19,-290.9700000000,A01A3A,5,1552116814000
1552116841968.7500000000,19,-274.5900000000,A01A3A,5,1552116814000
1552116841984.3798828125,19,-247.6500000000,A01A3A,5,1552116814000
1552116842000.0000000000,19,-215.6500000000,A01A3A,5,1552116814000
1552116842015.6201171875,19,-185.8200000000,A01A3A,5,1552116814000
1552116842031.2500000000,19,-164.7200000000,A01A3A,5,1552116814000
1552116842046.8798828125,19,-155.6700000000,A01A3A,5,1552116814000
1552116842062.5000000000,19,-157.4200000000,A01A3A,5,1552116814000
1552116842078.1201171875,19,-164.6000000000,A01A3A,5,1552116814000
1552116842093.7500000000,19,-169.6700000000,A01A3A,5,1552116814000
1552116842109.3798828125,19,-165.6900000000,A01A3A,5,1552116814000
1552116842125.0000000000,19,-148.6900000000,A01A3A,5,1552116814000
1552116842140.6201171875,19,-118.8600000000,A01A3A,5,1552116814000
1552116842156.2500000000,19,-80.2600000000,A01A3A,5,1552116814000
1552116842171.8798828125,19,-39.1100000000,A01A3A,5,1552116814000
1552116842187.5000000000,19,-1.3800000000,A01A3A,5,1552116814000
1552116842203.1201171875,19,29.2300000000,A01A3A,5,1552116814000
1552116842218.7500000000,19,52.2700000000,A01A3A,5,1552116814000
1552116842234.3798828125,19,69.6900000000,A01A3A,5,1552116814000
1552116842250.0000000000,19,84.1200000000,A01A3A,5,1552116814000
1552116842265.6201171875,19,97.1600000000,A01A3A,5,1552116814000
1552116842281.2500000000,19,108.6400000000,A01A3A,5,1552116814000
1552116842296.8798828125,19,117.3200000000,A01A3A,5,1552116814000
1552116842312.5000000000,19,122.1900000000,A01A3A,5,1552116814000
1552116842328.1201171875,19,123.5000000000,A01A3A,5,1552116814000
1552116842343.7500000000,19,122.6800000000,A01A3A,5,1552116814000
1552116842359.3798828125,19,121.4000000000,A01A3A,5,1552116814000
1552116842375.0000000000,19,120.2900000000,A01A3A,5,1552116814000
1552116842390.6201171875,19,118.5000000000,A01A3A,5,1552116814000
1552116842406.2500000000,19,114.2300000000,A01A3A,5,1552116814000
1552116842421.8798828125,19,105.9900000000,A01A3A,5,1552116814000
1552116842437.5000000000,19,93.7700000000,A01A3A,5,1552116814000
1552116842453.1201171875,19,79.4500000000,A01A3A,5,1552116814000
1552116842468.7500000000,19,66.2800000000,A01A3A,5,1552116814000
1552116842484.3798828125,19,57.4500000000,A01A3A,5,1552116814000
1552116842500.0000000000,19,54.7600000000,A01A3A,5,1552116814000
1552116842515.6201171875,19,57.7500000000,A01A3A,5,1552116814000
1552116842531.2500000000,19,63.8500000000,A01A3A,5,1552116814000
1552116842546.8798828125,19,69.3400000000,A01A3A,5,1552116814000
1552116842562.5000000000,19,70.6200000000,A01A3A,5,1552116814000
1552116842578.1201171875,19,65.4700000000,A01A3A,5,1552116814000
1552116842593.7500000000,19,53.7200000000,A01A3A,5,1552116814000
1552116842609.3798828125,19,37.2100000000,A01A3A,5,1552116814000
1552116842625.0000000000,19,19.1100000000,A01A3A,5,1552116814000
1552116842640.6201171875,19,2.8500000000,A01A3A,5,1552116814000
1552116842656.2500000000,19,-8.9900000000,A01A3A,5,1552116814000
1552116842671.8798828125,19,-15.4500000000,A01A3A,5,1552116814000
1552116842687.5000000000,19,-17.3200000000,A01A3A,5,1552116814000
1552116842703.1201171875,19,-16.7700000000,A01A3A,5,1552116814000
