timestamp,pid,value,device_serial,device_number,entry_time
1548223953000.0000000000,8,0E-10,A01A3A,5,1548223953000
1548223953015.6201171875,8,0E-10,A01A3A,5,1548223953000
1548223953031.2500000000,8,0E-10,A01A3A,5,1548223953000
1548223953046.8798828125,8,0E-10,A01A3A,5,1548223953000
1548223953062.5000000000,8,0E-10,A01A3A,5,1548223953000
1548223953078.1201171875,8,0E-10,A01A3A,5,1548223953000
1548223953093.7500000000,8,0E-10,A01A3A,5,1548223953000
1548223953109.3798828125,8,0E-10,A01A3A,5,1548223953000
1548223953125.0000000000,8,0E-10,A01A3A,5,1548223953000
1548223953140.6201171875,8,0E-10,A01A3A,5,1548223953000
1548223953156.2500000000,8,0E-10,A01A3A,5,1548223953000
1548223953171.8798828125,8,0.0100000000,A01A3A,5,1548223953000
1548223953187.5000000000,8,0.0100000000,A01A3A,5,1548223953000
1548223953203.1201171875,8,0E-10,A01A3A,5,1548223953000
1548223953218.7500000000,8,-0.0300000000,A01A3A,5,1548223953000
1548223953234.3798828125,8,-0.0500000000,A01A3A,5,1548223953000
1548223953250.0000000000,8,-0.0500000000,A01A3A,5,1548223953000
1548223953265.6201171875,8,0E-10,A01A3A,5,1548223953000
1548223953281.2500000000,8,0.1300000000,A01A3A,5,1548223953000
1548223953296.8798828125,8,0.3600000000,A01A3A,5,1548223953000
1548223953312.5000000000,8,0.6600000000,A01A3A,5,1548223953000
1548223953328.1201171875,8,1.0100000000,A01A3A,5,1548223953000
1548223953343.7500000000,8,1.3700000000,A01A3A,5,1548223953000
1548223953359.3798828125,8,1.7200000000,A01A3A,5,1548223953000
1548223953375.0000000000,8,2.0600000000,A01A3A,5,1548223953000
1548223953390.6201171875,8,2.4000000000,A01A3A,5,1548223953000
1548223953406.2500000000,8,2.7900000000,A01A3A,5,1548223953000
1548223953421.8798828125,8,3.2400000000,A01A3A,5,1548223953000
1548223953437.5000000000,8,3.8000000000,A01A3A,5,1548223953000
1548223953453.1201171875,8,4.4200000000,A01A3A,5,1548223953000
1548223953468.7500000000,8,5.0600000000,A01A3A,5,1548223953000
1548223953484.3798828125,8,5.6600000000,A01A3A,5,1548223953000
1548223953500.0000000000,8,6.2000000000,A01A3A,5,1548223953000
1548223953515.6201171875,8,6.6800000000,A01A3A,5,1548223953000
1548223953531.2500000000,8,7.1500000000,A01A3A,5,1548223953000
1548223953546.8798828125,8,7.6800000000,A01A3A,5,1548223953000
1548223953562.5000000000,8,8.3100000000,A01A3A,5,1548223953000
1548223953578.1201171875,8,9.1400000000,A01A3A,5,1548223953000
1548223953593.7500000000,8,10.0900000000,A01A3A,5,1548223953000
1548223953609.3798828125,8,11.0400000000,A01A3A,5,1548223953000
1548223953625.0000000000,8,11.8800000000,A01A3A,5,1548223953000
1548223953640.6201171875,8,12.5600000000,A01A3A,5,1548223953000
1548223953656.2500000000,8,13.1400000000,A01A3A,5,1548223953000
1548223953671.8798828125,8,13.7600000000,A01A3A,5,1548223953000
1548223953687.5000000000,8,14.6500000000,A01A3A,5,1548223953000
1548223953703.1201171875,8,15.9600000000,A01A3A,5,1548223953000
1548223953718.7500000000,8,17.9100000000,A01A3A,5,1548223953000
1548223953734.3798828125,8,20.3200000000,A01A3A,5,1548223953000
1548223953750.0000000000,8,22.9000000000,A01A3A,5,1548223953000
1548223953765.6201171875,8,25.3800000000,A01A3A,5,1548223953000
1548223953781.2500000000,8,27.5800000000,A01A3A,5,1548223953000
1548223953796.8798828125,8,29.5700000000,A01A3A,5,1548223953000
1548223953812.5000000000,8,31.6800000000,A01A3A,5,1548223953000
1548223953828.1201171875,8,34.3200000000,A01A3A,5,1548223953000
1548223953843.7500000000,8,37.8100000000,A01A3A,5,1548223953000
1548223953859.3798828125,8,42.5400000000,A01A3A,5,1548223953000
1548223953875.0000000000,8,48.1500000000,A01A3A,5,1548223953000
1548223953890.6201171875,8,54.1000000000,A01A3A,5,1548223953000
1548223953906.2500000000,8,59.8300000000,A01A3A,5,1548223953000
1548223953921.8798828125,8,64.9700000000,A01A3A,5,1548223953000
1548223953937.5000000000,8,69.5800000000,A01A3A,5,1548223953000
1548223953953.1201171875,8,74.1400000000,A01A3A,5,1548223953000
1548223953968.7500000000,8,79.3400000000,A01A3A,5,1548223953000
1548223953984.3798828125,8,85.7100000000,A01A3A,5,1548223953000
1548223954000.0000000000,8,93.7600000000,A01A3A,5,1548223953000
1548223954015.6201171875,8,103.0000000000,A01A3A,5,1548223953000
1548223954031.2500000000,8,112.6200000000,A01A3A,5,1548223953000
1548223954046.8798828125,8,121.7300000000,A01A3A,5,1548223953000
1548223954062.5000000000,8,129.7700000000,A01A3A,5,1548223953000
1548223954078.1201171875,8,136.7500000000,A01A3A,5,1548223953000
1548223954093.7500000000,8,143.3000000000,A01A3A,5,1548223953000
1548223954109.3798828125,8,150.7500000000,A01A3A,5,1548223953000
1548223954125.0000000000,8,157.7700000000,A01A3A,5,1548223953000
1548223954140.6201171875,8,166.6400000000,A01A3A,5,1548223953000
1548223954156.2500000000,8,177.9500000000,A01A3A,5,1548223953000
1548223954171.8798828125,8,191.7900000000,A01A3A,5,1548223953000
1548223954187.5000000000,8,206.9700000000,A01A3A,5,1548223953000
1548223954203.1201171875,8,220.5700000000,A01A3A,5,1548223953000
1548223954218.7500000000,8,228.2500000000,A01A3A,5,1548223953000
1548223954234.3798828125,8,225.3600000000,A01A3A,5,1548223953000
1548223954250.0000000000,8,208.5300000000,A01A3A,5,1548223953000
1548223954265.6201171875,8,176.8700000000,A01A3A,5,1548223953000
1548223954281.2500000000,8,132.7600000000,A01A3A,5,1548223953000
1548223954296.8798828125,8,80.0500000000,A01A3A,5,1548223953000
1548223954312.5000000000,8,23.0700000000,A01A3A,5,1548223953000
1548223954328.1201171875,8,-34.9400000000,A01A3A,5,1548223953000
1548223954343.7500000000,8,-92.4400000000,A01A3A,5,1548223953000
1548223954359.3798828125,8,-149.1600000000,A01A3A,5,1548223953000
1548223954375.0000000000,8,-205.2300000000,A01A3A,5,1548223953000
1548223954390.6201171875,8,-260.3700000000,A01A3A,5,1548223953000
1548223954406.2500000000,8,-313.7400000000,A01A3A,5,1548223953000
1548223954421.8798828125,8,-363.8700000000,A01A3A,5,1548223953000
1548223954437.5000000000,8,-409.8300000000,A01A3A,5,1548223953000
1548223954453.1201171875,8,-450.9100000000,A01A3A,5,1548223953000
1548223954468.7500000000,8,-486.5000000000,A01A3A,5,1548223953000
1548223954484.3798828125,8,-515.7400000000,A01A3A,5,1548223953000
1548223954500.0000000000,8,-537.2300000000,A01A3A,5,1548223953000
1548223954515.6201171875,8,-549.2200000000,A01A3A,5,1548223953000
1548223954531.2500000000,8,-549.9600000000,A01A3A,5,1548223953000
1548223954546.8798828125,8,-538.3700000000,A01A3A,5,1548223953000
1548223954562.5000000000,8,-514.2100000000,A01A3A,5,1548223953000
1548223954578.1201171875,8,-478.6700000000,A01A3A,5,1548223953000
1548223954593.7500000000,8,-433.8800000000,A01A3A,5,1548223953000
1548223954609.3798828125,8,-382.4500000000,A01A3A,5,1548223953000
1548223954625.0000000000,8,-327.0200000000,A01A3A,5,1548223953000
1548223954640.6201171875,8,-269.8400000000,A01A3A,5,1548223953000
1548223954656.2500000000,8,-212.6400000000,A01A3A,5,1548223953000
1548223954671.8798828125,8,-156.6600000000,A01A3A,5,1548223953000
1548223954687.5000000000,8,-102.9500000000,A01A3A,5,1548223953000
1548223954703.1201171875,8,-52.3700000000,A01A3A,5,1548223953000
1548223954718.7500000000,8,-5.8900000000,A01A3A,5,1548223953000
1548223954734.3798828125,8,35.6000000000,A01A3A,5,1548223953000
1548223954750.0000000000,8,71.4600000000,A01A3A,5,1548223953000
1548223954765.6201171875,8,101.4000000000,A01A3A,5,1548223953000
1548223954781.2500000000,8,125.5800000000,A01A3A,5,1548223953000
1548223954796.8798828125,8,144.4800000000,A01A3A,5,1548223953000
1548223954812.5000000000,8,158.8300000000,A01A3A,5,1548223953000
1548223954828.1201171875,8,169.3300000000,A01A3A,5,1548223953000
1548223954843.7500000000,8,176.5900000000,A01A3A,5,1548223953000
1548223954859.3798828125,8,181.0200000000,A01A3A,5,1548223953000
1548223954875.0000000000,8,182.9000000000,A01A3A,5,1548223953000
1548223954890.6201171875,8,182.4500000000,A01A3A,5,1548223953000
1548223954906.2500000000,8,179.9400000000,A01A3A,5,1548223953000
1548223954921.8798828125,8,175.7300000000,A01A3A,5,1548223953000
1548223954937.5000000000,8,170.2100000000,A01A3A,5,1548223953000
1548223954953.1201171875,8,163.8000000000,A01A3A,5,1548223953000
1548223954968.7500000000,8,156.8300000000,A01A3A,5,1548223953000
1548223954984.3798828125,8,149.5600000000,A01A3A,5,1548223953000
1548223955000.0000000000,8,142.1200000000,A01A3A,5,1548223953000
1548223955015.6201171875,8,134.5900000000,A01A3A,5,1548223953000
1548223955031.2500000000,8,127.0000000000,A01A3A,5,1548223953000
1548223955046.8798828125,8,119.4000000000,A01A3A,5,1548223953000
1548223955062.5000000000,8,111.8500000000,A01A3A,5,1548223953000
1548223955078.1201171875,8,104.4200000000,A01A3A,5,1548223953000
1548223955093.7500000000,8,97.1900000000,A01A3A,5,1548223953000
1548223955109.3798828125,8,90.2000000000,A01A3A,5,1548223953000
1548223955125.0000000000,8,83.4800000000,A01A3A,5,1548223953000
1548223955140.6201171875,8,77.0600000000,A01A3A,5,1548223953000
1548223955156.2500000000,8,70.9500000000,A01A3A,5,1548223953000
1548223955171.8798828125,8,65.1500000000,A01A3A,5,1548223953000
1548223955187.5000000000,8,59.6800000000,A01A3A,5,1548223953000
1548223955203.1201171875,8,54.5400000000,A01A3A,5,1548223953000
1548223955218.7500000000,8,49.7500000000,A01A3A,5,1548223953000
1548223955234.3798828125,8,45.3000000000,A01A3A,5,1548223953000
1548223955250.0000000000,8,41.2000000000,A01A3A,5,1548223953000
1548223955265.6201171875,8,37.4400000000,A01A3A,5,1548223953000
1548223955281.2500000000,8,34.0200000000,A01A3A,5,1548223953000
1548223955296.8798828125,8,30.9300000000,A01A3A,5,1548223953000
1548223955312.5000000000,8,28.1600000000,A01A3A,5,1548223953000
1548223955328.1201171875,8,25.7200000000,A01A3A,5,1548223953000
1548223955343.7500000000,8,23.5900000000,A01A3A,5,1548223953000
1548223955359.3798828125,8,21.7800000000,A01A3A,5,1548223953000
1548223955375.0000000000,8,20.2700000000,A01A3A,5,1548223953000
1548223955390.6201171875,8,19.0600000000,A01A3A,5,1548223953000
1548223955406.2500000000,8,18.1400000000,A01A3A,5,1548223953000
1548223955421.8798828125,8,17.4900000000,A01A3A,5,1548223953000
1548223955437.5000000000,8,17.1100000000,A01A3A,5,1548223953000
1548223955453.1201171875,8,16.9700000000,A01A3A,5,1548223953000
1548223955468.7500000000,8,17.0500000000,A01A3A,5,1548223953000
1548223955484.3798828125,8,17.3400000000,A01A3A,5,1548223953000
1548223955500.0000000000,8,17.8200000000,A01A3A,5,1548223953000
1548223955515.6201171875,8,18.4700000000,A01A3A,5,1548223953000
1548223955531.2500000000,8,19.2800000000,A01A3A,5,1548223953000
1548223955546.8798828125,8,20.2500000000,A01A3A,5,1548223953000
1548223955562.5000000000,8,21.3800000000,A01A3A,5,1548223953000
1548223955578.1201171875,8,22.6400000000,A01A3A,5,1548223953000
1548223955593.7500000000,8,24.0300000000,A01A3A,5,1548223953000
1548223955609.3798828125,8,25.5100000000,A01A3A,5,1548223953000
1548223955625.0000000000,8,27.0300000000,A01A3A,5,1548223953000
1548223955640.6201171875,8,28.5100000000,A01A3A,5,1548223953000
1548223955656.2500000000,8,29.8500000000,A01A3A,5,1548223953000
1548223955671.8798828125,8,30.9300000000,A01A3A,5,1548223953000
1548223955687.5000000000,8,31.5900000000,A01A3A,5,1548223953000
1548223955703.1201171875,8,31.6700000000,A01A3A,5,1548223953000
1548223955718.7500000000,8,31.0500000000,A01A3A,5,1548223953000
1548223955734.3798828125,8,29.6100000000,A01A3A,5,1548223953000
1548223955750.0000000000,8,27.2700000000,A01A3A,5,1548223953000
1548223955765.6201171875,8,24.0600000000,A01A3A,5,1548223953000
1548223955781.2500000000,8,20.0300000000,A01A3A,5,1548223953000
1548223955796.8798828125,8,15.2800000000,A01A3A,5,1548223953000
1548223955812.5000000000,8,10.0100000000,A01A3A,5,1548223953000
1548223955828.1201171875,8,4.4400000000,A01A3A,5,1548223953000
1548223955843.7500000000,8,-1.1500000000,A01A3A,5,1548223953000
1548223955859.3798828125,8,-6.5100000000,A01A3A,5,1548223953000
1548223955875.0000000000,8,-11.3900000000,A01A3A,5,1548223953000
1548223955890.6201171875,8,-15.5900000000,A01A3A,5,1548223953000
1548223955906.2500000000,8,-18.9700000000,A01A3A,5,1548223953000
1548223955921.8798828125,8,-21.4600000000,A01A3A,5,1548223953000
1548223955937.5000000000,8,-23.0200000000,A01A3A,5,1548223953000
1548223955953.1201171875,8,-23.7000000000,A01A3A,5,1548223953000
1548223955968.7500000000,8,-23.6000000000,A01A3A,5,1548223953000
1548223955984.3798828125,8,-22.8400000000,A01A3A,5,1548223953000
1548223956000.0000000000,8,-21.5700000000,A01A3A,5,1548223953000
1548223956015.6201171875,8,-19.9100000000,A01A3A,5,1548223953000
1548223956031.2500000000,8,-18.0000000000,A01A3A,5,1548223953000
1548223956046.8798828125,8,-15.9300000000,A01A3A,5,1548223953000
1548223956062.5000000000,8,-13.7800000000,A01A3A,5,1548223953000
1548223956078.1201171875,8,-11.5900000000,A01A3A,5,1548223953000
1548223956093.7500000000,8,-9.3700000000,A01A3A,5,1548223953000
1548223956109.3798828125,8,-7.1500000000,A01A3A,5,1548223953000
1548223956125.0000000000,8,-4.9500000000,A01A3A,5,1548223953000
1548223956140.6201171875,8,-2.7600000000,A01A3A,5,1548223953000
1548223956156.2500000000,8,-0.5600000000,A01A3A,5,1548223953000
1548223956171.8798828125,8,1.6500000000,A01A3A,5,1548223953000
1548223956187.5000000000,8,3.9000000000,A01A3A,5,1548223953000
1548223956203.1201171875,8,6.2100000000,A01A3A,5,1548223953000
1548223956218.7500000000,8,8.6200000000,A01A3A,5,1548223953000
1548223956234.3798828125,8,11.1700000000,A01A3A,5,1548223953000
1548223956250.0000000000,8,13.8100000000,A01A3A,5,1548223953000
1548223956265.6201171875,8,16.5300000000,A01A3A,5,1548223953000
1548223956281.2500000000,8,19.3200000000,A01A3A,5,1548223953000
1548223956296.8798828125,8,22.2000000000,A01A3A,5,1548223953000
1548223956312.5000000000,8,25.1800000000,A01A3A,5,1548223953000
1548223956328.1201171875,8,28.2800000000,A01A3A,5,1548223953000
1548223956343.7500000000,8,31.5500000000,A01A3A,5,1548223953000
1548223956359.3798828125,8,35.0300000000,A01A3A,5,1548223953000
1548223956375.0000000000,8,38.8100000000,A01A3A,5,1548223953000
1548223956390.6201171875,8,42.7800000000,A01A3A,5,1548223953000
1548223956406.2500000000,8,46.8900000000,A01A3A,5,1548223953000
1548223956421.8798828125,8,51.1100000000,A01A3A,5,1548223953000
1548223956437.5000000000,8,55.4600000000,A01A3A,5,1548223953000
1548223956453.1201171875,8,59.9200000000,A01A3A,5,1548223953000
1548223956468.7500000000,8,64.5400000000,A01A3A,5,1548223953000
1548223956484.3798828125,8,69.3600000000,A01A3A,5,1548223953000
1548223956500.0000000000,8,74.4500000000,A01A3A,5,1548223953000
1548223956515.6201171875,8,79.9500000000,A01A3A,5,1548223953000
1548223956531.2500000000,8,85.6700000000,A01A3A,5,1548223953000
1548223956546.8798828125,8,91.5000000000,A01A3A,5,1548223953000
1548223956562.5000000000,8,97.4000000000,A01A3A,5,1548223953000
1548223956578.1201171875,8,103.3300000000,A01A3A,5,1548223953000
1548223956593.7500000000,8,109.2900000000,A01A3A,5,1548223953000
1548223956609.3798828125,8,115.2700000000,A01A3A,5,1548223953000
1548223956625.0000000000,8,121.3000000000,A01A3A,5,1548223953000
1548223956640.6201171875,8,127.4200000000,A01A3A,5,1548223953000
1548223956656.2500000000,8,133.7000000000,A01A3A,5,1548223953000
1548223956671.8798828125,8,139.8500000000,A01A3A,5,1548223953000
1548223956687.5000000000,8,145.6200000000,A01A3A,5,1548223953000
1548223956703.1201171875,8,150.7800000000,A01A3A,5,1548223953000
1548223956718.7500000000,8,155.0900000000,A01A3A,5,1548223953000
1548223956734.3798828125,8,158.2200000000,A01A3A,5,1548223953000
1548223956750.0000000000,8,159.7600000000,A01A3A,5,1548223953000
1548223956765.6201171875,8,159.1200000000,A01A3A,5,1548223953000
1548223956781.2500000000,8,155.3900000000,A01A3A,5,1548223953000
1548223956796.8798828125,8,150.2300000000,A01A3A,5,1548223953000
1548223956812.5000000000,8,144.1400000000,A01A3A,5,1548223953000
1548223956828.1201171875,8,137.4800000000,A01A3A,5,1548223953000
1548223956843.7500000000,8,130.4400000000,A01A3A,5,1548223953000
1548223956859.3798828125,8,123.1800000000,A01A3A,5,1548223953000
1548223956875.0000000000,8,115.8400000000,A01A3A,5,1548223953000
1548223956890.6201171875,8,108.5400000000,A01A3A,5,1548223953000
1548223956906.2500000000,8,101.4000000000,A01A3A,5,1548223953000
1548223956921.8798828125,8,94.5900000000,A01A3A,5,1548223953000
1548223956937.5000000000,8,88.3100000000,A01A3A,5,1548223953000
1548223956953.1201171875,8,82.3700000000,A01A3A,5,1548223953000
1548223956968.7500000000,8,76.6500000000,A01A3A,5,1548223953000
1548223956984.3798828125,8,71.0900000000,A01A3A,5,1548223953000
1548223957000.0000000000,8,65.6600000000,A01A3A,5,1548223953000
1548223957015.6201171875,8,60.3300000000,A01A3A,5,1548223953000
1548223957031.2500000000,8,55.1400000000,A01A3A,5,1548223953000
1548223957046.8798828125,8,50.1600000000,A01A3A,5,1548223953000
1548223957062.5000000000,8,45.4900000000,A01A3A,5,1548223953000
1548223957078.1201171875,8,41.2700000000,A01A3A,5,1548223953000
1548223957093.7500000000,8,37.3700000000,A01A3A,5,1548223953000
1548223957109.3798828125,8,33.7000000000,A01A3A,5,1548223953000
1548223957125.0000000000,8,30.1900000000,A01A3A,5,1548223953000
1548223957140.6201171875,8,26.8000000000,A01A3A,5,1548223953000
1548223957156.2500000000,8,23.5200000000,A01A3A,5,1548223953000
1548223957171.8798828125,8,20.3300000000,A01A3A,5,1548223953000
1548223957187.5000000000,8,17.3000000000,A01A3A,5,1548223953000
1548223957203.1201171875,8,14.4900000000,A01A3A,5,1548223953000
1548223957218.7500000000,8,12.0000000000,A01A3A,5,1548223953000
1548223957234.3798828125,8,9.7400000000,A01A3A,5,1548223953000
1548223957250.0000000000,8,7.6100000000,A01A3A,5,1548223953000
1548223957265.6201171875,8,5.5000000000,A01A3A,5,1548223953000
1548223957281.2500000000,8,3.3400000000,A01A3A,5,1548223953000
1548223957296.8798828125,8,1.0500000000,A01A3A,5,1548223953000
1548223957312.5000000000,8,-1.3900000000,A01A3A,5,1548223953000
1548223957328.1201171875,8,-3.9100000000,A01A3A,5,1548223953000
1548223957343.7500000000,8,-6.4100000000,A01A3A,5,1548223953000
1548223957359.3798828125,8,-8.7800000000,A01A3A,5,1548223953000
1548223957375.0000000000,8,-11.0200000000,A01A3A,5,1548223953000
1548223957390.6201171875,8,-13.2400000000,A01A3A,5,1548223953000
1548223957406.2500000000,8,-15.5900000000,A01A3A,5,1548223953000
1548223957421.8798828125,8,-18.2700000000,A01A3A,5,1548223953000
1548223957437.5000000000,8,-21.4300000000,A01A3A,5,1548223953000
1548223957453.1201171875,8,-25.1000000000,A01A3A,5,1548223953000
1548223957468.7500000000,8,-29.1600000000,A01A3A,5,1548223953000
1548223957484.3798828125,8,-33.3500000000,A01A3A,5,1548223953000
1548223957500.0000000000,8,-37.4000000000,A01A3A,5,1548223953000
1548223957515.6201171875,8,-41.1900000000,A01A3A,5,1548223953000
1548223957531.2500000000,8,-44.8300000000,A01A3A,5,1548223953000
1548223957546.8798828125,8,-48.5600000000,A01A3A,5,1548223953000
1548223957562.5000000000,8,-52.7600000000,A01A3A,5,1548223953000
1548223957578.1201171875,8,-57.7200000000,A01A3A,5,1548223953000
1548223957593.7500000000,8,-63.5300000000,A01A3A,5,1548223953000
1548223957609.3798828125,8,-70.0000000000,A01A3A,5,1548223953000
1548223957625.0000000000,8,-76.7700000000,A01A3A,5,1548223953000
1548223957640.6201171875,8,-83.4300000000,A01A3A,5,1548223953000
1548223957656.2500000000,8,-89.8100000000,A01A3A,5,1548223953000
1548223957671.8798828125,8,-96.1000000000,A01A3A,5,1548223953000
1548223957687.5000000000,8,-102.7600000000,A01A3A,5,1548223953000
1548223957703.1201171875,8,-110.4100000000,A01A3A,5,1548223953000
1548223957718.7500000000,8,-119.5500000000,A01A3A,5,1548223953000
1548223957734.3798828125,8,-130.3200000000,A01A3A,5,1548223953000
1548223957750.0000000000,8,-142.4400000000,A01A3A,5,1548223953000
1548223957765.6201171875,8,-155.3600000000,A01A3A,5,1548223953000
1548223957781.2500000000,8,-168.5300000000,A01A3A,5,1548223953000
1548223957796.8798828125,8,-181.5700000000,A01A3A,5,1548223953000
1548223957812.5000000000,8,-194.4800000000,A01A3A,5,1548223953000
1548223957828.1201171875,8,-207.5400000000,A01A3A,5,1548223953000
1548223957843.7500000000,8,-221.2700000000,A01A3A,5,1548223953000
1548223957859.3798828125,8,-236.3900000000,A01A3A,5,1548223953000
1548223957875.0000000000,8,-253.8300000000,A01A3A,5,1548223953000
1548223957890.6201171875,8,-274.4600000000,A01A3A,5,1548223953000
1548223957906.2500000000,8,-298.5800000000,A01A3A,5,1548223953000
1548223957921.8798828125,8,-325.1900000000,A01A3A,5,1548223953000
1548223957937.5000000000,8,-351.6300000000,A01A3A,5,1548223953000
1548223957953.1201171875,8,-373.9100000000,A01A3A,5,1548223953000
1548223957968.7500000000,8,-387.8300000000,A01A3A,5,1548223953000
1548223957984.3798828125,8,-390.4400000000,A01A3A,5,1548223953000
1548223958000.0000000000,8,-381.1200000000,A01A3A,5,1548223953000
1548223958015.6201171875,8,-361.6400000000,A01A3A,5,1548223953000
1548223958031.2500000000,8,-335.2700000000,A01A3A,5,1548223953000
1548223958046.8798828125,8,-305.4000000000,A01A3A,5,1548223953000
1548223958062.5000000000,8,-274.4400000000,A01A3A,5,1548223953000
1548223958078.1201171875,8,-243.6300000000,A01A3A,5,1548223953000
1548223958093.7500000000,8,-213.5200000000,A01A3A,5,1548223953000
1548223958109.3798828125,8,-184.6500000000,A01A3A,5,1548223953000
1548223958125.0000000000,8,-157.8700000000,A01A3A,5,1548223953000
1548223958140.6201171875,8,-134.0700000000,A01A3A,5,1548223953000
1548223958156.2500000000,8,-113.6800000000,A01A3A,5,1548223953000
1548223958171.8798828125,8,-96.3300000000,A01A3A,5,1548223953000
1548223958187.5000000000,8,-81.0000000000,A01A3A,5,1548223953000
1548223958203.1201171875,8,-66.6400000000,A01A3A,5,1548223953000
1548223958218.7500000000,8,-52.6500000000,A01A3A,5,1548223953000
1548223958234.3798828125,8,-39.1900000000,A01A3A,5,1548223953000
1548223958250.0000000000,8,-26.8600000000,A01A3A,5,1548223953000
1548223958265.6201171875,8,-16.3700000000,A01A3A,5,1548223953000
1548223958281.2500000000,8,-7.9800000000,A01A3A,5,1548223953000
1548223958296.8798828125,8,-1.4100000000,A01A3A,5,1548223953000
1548223958312.5000000000,8,4.0900000000,A01A3A,5,1548223953000
1548223958328.1201171875,8,9.3400000000,A01A3A,5,1548223953000
1548223958343.7500000000,8,14.8800000000,A01A3A,5,1548223953000
1548223958359.3798828125,8,20.8100000000,A01A3A,5,1548223953000
1548223958375.0000000000,8,26.8100000000,A01A3A,5,1548223953000
1548223958390.6201171875,8,32.3400000000,A01A3A,5,1548223953000
1548223958406.2500000000,8,36.9600000000,A01A3A,5,1548223953000
1548223958421.8798828125,8,40.5000000000,A01A3A,5,1548223953000
1548223958437.5000000000,8,43.0700000000,A01A3A,5,1548223953000
1548223958453.1201171875,8,44.9500000000,A01A3A,5,1548223953000
1548223958468.7500000000,8,46.3700000000,A01A3A,5,1548223953000
1548223958484.3798828125,8,47.3800000000,A01A3A,5,1548223953000
1548223958500.0000000000,8,47.8700000000,A01A3A,5,1548223953000
1548223958515.6201171875,8,47.7100000000,A01A3A,5,1548223953000
1548223958531.2500000000,8,46.9000000000,A01A3A,5,1548223953000
1548223958546.8798828125,8,45.6100000000,A01A3A,5,1548223953000
1548223958562.5000000000,8,44.1300000000,A01A3A,5,1548223953000
1548223958578.1201171875,8,42.7400000000,A01A3A,5,1548223953000
1548223958593.7500000000,8,41.4700000000,A01A3A,5,1548223953000
1548223958609.3798828125,8,40.1800000000,A01A3A,5,1548223953000
1548223958625.0000000000,8,38.5300000000,A01A3A,5,1548223953000
1548223958640.6201171875,8,36.3300000000,A01A3A,5,1548223953000
1548223958656.2500000000,8,33.6400000000,A01A3A,5,1548223953000
1548223958671.8798828125,8,30.8200000000,A01A3A,5,1548223953000
1548223958687.5000000000,8,28.3000000000,A01A3A,5,1548223953000
1548223958703.1201171875,8,26.3200000000,A01A3A,5,1548223953000
1548223958718.7500000000,8,24.6700000000,A01A3A,5,1548223953000
1548223958734.3798828125,8,22.7600000000,A01A3A,5,1548223953000
1548223958750.0000000000,8,19.9300000000,A01A3A,5,1548223953000
1548223958765.6201171875,8,15.8300000000,A01A3A,5,1548223953000
1548223958781.2500000000,8,10.7900000000,A01A3A,5,1548223953000
1548223958796.8798828125,8,5.6900000000,A01A3A,5,1548223953000
1548223958812.5000000000,8,1.6400000000,A01A3A,5,1548223953000
1548223958828.1201171875,8,-0.5200000000,A01A3A,5,1548223953000
1548223958843.7500000000,8,-0.5600000000,A01A3A,5,1548223953000
1548223958859.3798828125,8,1.1900000000,A01A3A,5,1548223953000
1548223958875.0000000000,8,4.0800000000,A01A3A,5,1548223953000
1548223958890.6201171875,8,7.6200000000,A01A3A,5,1548223953000
1548223958906.2500000000,8,11.6100000000,A01A3A,5,1548223953000
1548223958921.8798828125,8,16.1600000000,A01A3A,5,1548223953000
1548223958937.5000000000,8,21.3400000000,A01A3A,5,1548223953000
1548223958953.1201171875,8,26.9600000000,A01A3A,5,1548223953000
1548223958968.7500000000,8,32.4700000000,A01A3A,5,1548223953000
1548223958984.3798828125,8,37.1300000000,A01A3A,5,1548223953000
1548223959000.0000000000,8,40.3700000000,A01A3A,5,1548223953000
1548223959015.6201171875,8,41.9900000000,A01A3A,5,1548223953000
1548223959031.2500000000,8,42.2600000000,A01A3A,5,1548223953000
1548223959046.8798828125,8,41.7800000000,A01A3A,5,1548223953000
1548223959062.5000000000,8,41.1100000000,A01A3A,5,1548223953000
1548223959078.1201171875,8,40.5900000000,A01A3A,5,1548223953000
1548223959093.7500000000,8,40.2500000000,A01A3A,5,1548223953000
1548223959109.3798828125,8,39.8800000000,A01A3A,5,1548223953000
1548223959125.0000000000,8,39.3100000000,A01A3A,5,1548223953000
1548223959140.6201171875,8,38.4800000000,A01A3A,5,1548223953000
1548223959156.2500000000,8,37.5800000000,A01A3A,5,1548223953000
1548223959171.8798828125,8,36.8500000000,A01A3A,5,1548223953000
1548223959187.5000000000,8,36.4500000000,A01A3A,5,1548223953000
1548223959203.1201171875,8,36.2600000000,A01A3A,5,1548223953000
1548223959218.7500000000,8,35.8900000000,A01A3A,5,1548223953000
1548223959234.3798828125,8,34.8900000000,A01A3A,5,1548223953000
1548223959250.0000000000,8,32.9200000000,A01A3A,5,1548223953000
1548223959265.6201171875,8,29.9900000000,A01A3A,5,1548223953000
1548223959281.2500000000,8,26.5000000000,A01A3A,5,1548223953000
1548223959296.8798828125,8,23.1200000000,A01A3A,5,1548223953000
1548223959312.5000000000,8,20.5500000000,A01A3A,5,1548223953000
1548223959328.1201171875,8,19.1800000000,A01A3A,5,1548223953000
1548223959343.7500000000,8,18.9800000000,A01A3A,5,1548223953000
1548223959359.3798828125,8,19.5200000000,A01A3A,5,1548223953000
1548223959375.0000000000,8,20.1000000000,A01A3A,5,1548223953000
1548223959390.6201171875,8,20.1300000000,A01A3A,5,1548223953000
1548223959406.2500000000,8,19.3400000000,A01A3A,5,1548223953000
1548223959421.8798828125,8,17.8900000000,A01A3A,5,1548223953000
1548223959437.5000000000,8,16.1900000000,A01A3A,5,1548223953000
1548223959453.1201171875,8,14.6200000000,A01A3A,5,1548223953000
1548223959468.7500000000,8,13.2900000000,A01A3A,5,1548223953000
1548223959484.3798828125,8,11.9600000000,A01A3A,5,1548223953000
1548223959500.0000000000,8,10.2300000000,A01A3A,5,1548223953000
1548223959515.6201171875,8,7.7700000000,A01A3A,5,1548223953000
1548223959531.2500000000,8,4.6000000000,A01A3A,5,1548223953000
1548223959546.8798828125,8,1.0900000000,A01A3A,5,1548223953000
1548223959562.5000000000,8,-2.1800000000,A01A3A,5,1548223953000
1548223959578.1201171875,8,-4.7600000000,A01A3A,5,1548223953000
1548223959593.7500000000,8,-6.5500000000,A01A3A,5,1548223953000
1548223959609.3798828125,8,-7.8700000000,A01A3A,5,1548223953000
1548223959625.0000000000,8,-9.2000000000,A01A3A,5,1548223953000
1548223959640.6201171875,8,-10.8500000000,A01A3A,5,1548223953000
1548223959656.2500000000,8,-12.6500000000,A01A3A,5,1548223953000
1548223959671.8798828125,8,-13.9500000000,A01A3A,5,1548223953000
1548223959687.5000000000,8,-13.8700000000,A01A3A,5,1548223953000
1548223959703.1201171875,8,-11.7700000000,A01A3A,5,1548223953000
1548223959718.7500000000,8,-7.6500000000,A01A3A,5,1548223953000
1548223959734.3798828125,8,-2.1800000000,A01A3A,5,1548223953000
1548223959750.0000000000,8,3.5500000000,A01A3A,5,1548223953000
1548223959765.6201171875,8,8.5800000000,A01A3A,5,1548223953000
1548223959781.2500000000,8,12.4300000000,A01A3A,5,1548223953000
1548223959796.8798828125,8,15.2000000000,A01A3A,5,1548223953000
1548223959812.5000000000,8,17.3300000000,A01A3A,5,1548223953000
1548223959828.1201171875,8,19.1800000000,A01A3A,5,1548223953000
1548223959843.7500000000,8,20.6900000000,A01A3A,5,1548223953000
1548223959859.3798828125,8,21.5400000000,A01A3A,5,1548223953000
1548223959875.0000000000,8,21.4200000000,A01A3A,5,1548223953000
1548223959890.6201171875,8,20.3800000000,A01A3A,5,1548223953000
1548223959906.2500000000,8,18.9200000000,A01A3A,5,1548223953000
1548223959921.8798828125,8,17.8300000000,A01A3A,5,1548223953000
1548223959937.5000000000,8,17.7400000000,A01A3A,5,1548223953000
1548223959953.1201171875,8,18.7500000000,A01A3A,5,1548223953000
1548223959968.7500000000,8,20.4200000000,A01A3A,5,1548223953000
1548223959984.3798828125,8,21.9800000000,A01A3A,5,1548223953000
1548223960000.0000000000,8,22.8100000000,A01A3A,5,1548223953000
1548223960015.6201171875,8,22.6500000000,A01A3A,5,1548223953000
1548223960031.2500000000,8,21.7200000000,A01A3A,5,1548223953000
1548223960046.8798828125,8,20.5000000000,A01A3A,5,1548223953000
1548223960062.5000000000,8,19.4500000000,A01A3A,5,1548223953000
1548223960078.1201171875,8,18.7100000000,A01A3A,5,1548223953000
1548223960093.7500000000,8,18.1200000000,A01A3A,5,1548223953000
1548223960109.3798828125,8,17.3000000000,A01A3A,5,1548223953000
1548223960125.0000000000,8,15.8800000000,A01A3A,5,1548223953000
1548223960140.6201171875,8,13.7500000000,A01A3A,5,1548223953000
1548223960156.2500000000,8,11.1200000000,A01A3A,5,1548223953000
1548223960171.8798828125,8,8.3800000000,A01A3A,5,1548223953000
1548223960187.5000000000,8,5.9500000000,A01A3A,5,1548223953000
1548223960203.1201171875,8,4.0100000000,A01A3A,5,1548223953000
1548223960218.7500000000,8,2.4700000000,A01A3A,5,1548223953000
1548223960234.3798828125,8,1.0200000000,A01A3A,5,1548223953000
1548223960250.0000000000,8,-0.6300000000,A01A3A,5,1548223953000
1548223960265.6201171875,8,-2.6500000000,A01A3A,5,1548223953000
1548223960281.2500000000,8,-4.9300000000,A01A3A,5,1548223953000
1548223960296.8798828125,8,-7.2600000000,A01A3A,5,1548223953000
1548223960312.5000000000,8,-9.4800000000,A01A3A,5,1548223953000
1548223960328.1201171875,8,-11.5800000000,A01A3A,5,1548223953000
1548223960343.7500000000,8,-13.6500000000,A01A3A,5,1548223953000
1548223960359.3798828125,8,-15.7300000000,A01A3A,5,1548223953000
1548223960375.0000000000,8,-17.6100000000,A01A3A,5,1548223953000
1548223960390.6201171875,8,-18.8300000000,A01A3A,5,1548223953000
1548223960406.2500000000,8,-18.7700000000,A01A3A,5,1548223953000
1548223960421.8798828125,8,-16.9900000000,A01A3A,5,1548223953000
1548223960437.5000000000,8,-13.4400000000,A01A3A,5,1548223953000
1548223960453.1201171875,8,-8.5000000000,A01A3A,5,1548223953000
1548223960468.7500000000,8,-2.9400000000,A01A3A,5,1548223953000
1548223960484.3798828125,8,2.4600000000,A01A3A,5,1548223953000
1548223960500.0000000000,8,7.0900000000,A01A3A,5,1548223953000
1548223960515.6201171875,8,10.6900000000,A01A3A,5,1548223953000
1548223960531.2500000000,8,13.3000000000,A01A3A,5,1548223953000
1548223960546.8798828125,8,15.1300000000,A01A3A,5,1548223953000
1548223960562.5000000000,8,16.3500000000,A01A3A,5,1548223953000
1548223960578.1201171875,8,17.0300000000,A01A3A,5,1548223953000
1548223960593.7500000000,8,17.1400000000,A01A3A,5,1548223953000
1548223960609.3798828125,8,16.6400000000,A01A3A,5,1548223953000
1548223960625.0000000000,8,15.5600000000,A01A3A,5,1548223953000
1548223960640.6201171875,8,14.0800000000,A01A3A,5,1548223953000
1548223960656.2500000000,8,12.4700000000,A01A3A,5,1548223953000
1548223960671.8798828125,8,11.0700000000,A01A3A,5,1548223953000
1548223960687.5000000000,8,10.1000000000,A01A3A,5,1548223953000
1548223960703.1201171875,8,9.6500000000,A01A3A,5,1548223953000
1548223960718.7500000000,8,9.6600000000,A01A3A,5,1548223953000
1548223960734.3798828125,8,9.8700000000,A01A3A,5,1548223953000
1548223960750.0000000000,8,9.9900000000,A01A3A,5,1548223953000
1548223960765.6201171875,8,9.7600000000,A01A3A,5,1548223953000
1548223960781.2500000000,8,9.1100000000,A01A3A,5,1548223953000
1548223960796.8798828125,8,8.1300000000,A01A3A,5,1548223953000
1548223960812.5000000000,8,7.0700000000,A01A3A,5,1548223953000
1548223960828.1201171875,8,6.1200000000,A01A3A,5,1548223953000
1548223960843.7500000000,8,5.3100000000,A01A3A,5,1548223953000
1548223960859.3798828125,8,4.4500000000,A01A3A,5,1548223953000
1548223960875.0000000000,8,3.2300000000,A01A3A,5,1548223953000
1548223960890.6201171875,8,1.4500000000,A01A3A,5,1548223953000
1548223960906.2500000000,8,-0.8800000000,A01A3A,5,1548223953000
1548223960921.8798828125,8,-3.4100000000,A01A3A,5,1548223953000
1548223960937.5000000000,8,-5.7100000000,A01A3A,5,1548223953000
1548223960953.1201171875,8,-7.4500000000,A01A3A,5,1548223953000
1548223960968.7500000000,8,-8.6800000000,A01A3A,5,1548223953000
1548223960984.3798828125,8,-9.7600000000,A01A3A,5,1548223953000
1548223961000.0000000000,8,-11.2200000000,A01A3A,5,1548223953000
1548223961015.6201171875,8,-13.4600000000,A01A3A,5,1548223953000
1548223961031.2500000000,8,-16.5900000000,A01A3A,5,1548223953000
1548223961046.8798828125,8,-20.3300000000,A01A3A,5,1548223953000
1548223961062.5000000000,8,-24.2500000000,A01A3A,5,1548223953000
1548223961078.1201171875,8,-27.9300000000,A01A3A,5,1548223953000
1548223961093.7500000000,8,-31.0600000000,A01A3A,5,1548223953000
1548223961109.3798828125,8,-33.5100000000,A01A3A,5,1548223953000
1548223961125.0000000000,8,-35.0400000000,A01A3A,5,1548223953000
1548223961140.6201171875,8,-35.3700000000,A01A3A,5,1548223953000
1548223961156.2500000000,8,-34.0900000000,A01A3A,5,1548223953000
1548223961171.8798828125,8,-30.9000000000,A01A3A,5,1548223953000
1548223961187.5000000000,8,-25.8200000000,A01A3A,5,1548223953000
1548223961203.1201171875,8,-19.3000000000,A01A3A,5,1548223953000
1548223961218.7500000000,8,-12.2400000000,A01A3A,5,1548223953000
1548223961234.3798828125,8,-5.5900000000,A01A3A,5,1548223953000
1548223961250.0000000000,8,-0.0900000000,A01A3A,5,1548223953000
1548223961265.6201171875,8,4.0100000000,A01A3A,5,1548223953000
1548223961281.2500000000,8,6.9900000000,A01A3A,5,1548223953000
1548223961296.8798828125,8,9.3500000000,A01A3A,5,1548223953000
1548223961312.5000000000,8,11.4800000000,A01A3A,5,1548223953000
1548223961328.1201171875,8,13.3700000000,A01A3A,5,1548223953000
1548223961343.7500000000,8,14.7000000000,A01A3A,5,1548223953000
1548223961359.3798828125,8,15.0600000000,A01A3A,5,1548223953000
1548223961375.0000000000,8,14.3100000000,A01A3A,5,1548223953000
1548223961390.6201171875,8,12.7800000000,A01A3A,5,1548223953000
1548223961406.2500000000,8,11.1700000000,A01A3A,5,1548223953000
1548223961421.8798828125,8,10.2600000000,A01A3A,5,1548223953000
1548223961437.5000000000,8,10.4800000000,A01A3A,5,1548223953000
1548223961453.1201171875,8,11.6900000000,A01A3A,5,1548223953000
1548223961468.7500000000,8,13.3000000000,A01A3A,5,1548223953000
1548223961484.3798828125,8,14.5800000000,A01A3A,5,1548223953000
1548223961500.0000000000,8,15.0200000000,A01A3A,5,1548223953000
1548223961515.6201171875,8,14.6000000000,A01A3A,5,1548223953000
1548223961531.2500000000,8,13.6700000000,A01A3A,5,1548223953000
1548223961546.8798828125,8,12.7700000000,A01A3A,5,1548223953000
1548223961562.5000000000,8,12.2500000000,A01A3A,5,1548223953000
1548223961578.1201171875,8,12.1200000000,A01A3A,5,1548223953000
1548223961593.7500000000,8,12.0100000000,A01A3A,5,1548223953000
1548223961609.3798828125,8,11.4500000000,A01A3A,5,1548223953000
1548223961625.0000000000,8,10.1300000000,A01A3A,5,1548223953000
1548223961640.6201171875,8,8.0600000000,A01A3A,5,1548223953000
1548223961656.2500000000,8,5.5800000000,A01A3A,5,1548223953000
1548223961671.8798828125,8,3.1300000000,A01A3A,5,1548223953000
1548223961687.5000000000,8,1.0700000000,A01A3A,5,1548223953000
1548223961703.1201171875,8,-0.6000000000,A01A3A,5,1548223953000
1548223961718.7500000000,8,-2.0700000000,A01A3A,5,1548223953000
1548223961734.3798828125,8,-3.6900000000,A01A3A,5,1548223953000
1548223961750.0000000000,8,-5.6900000000,A01A3A,5,1548223953000
1548223961765.6201171875,8,-8.0600000000,A01A3A,5,1548223953000
1548223961781.2500000000,8,-10.6200000000,A01A3A,5,1548223953000
1548223961796.8798828125,8,-13.1500000000,A01A3A,5,1548223953000
1548223961812.5000000000,8,-15.5700000000,A01A3A,5,1548223953000
1548223961828.1201171875,8,-17.9600000000,A01A3A,5,1548223953000
1548223961843.7500000000,8,-20.5200000000,A01A3A,5,1548223953000
1548223961859.3798828125,8,-23.2700000000,A01A3A,5,1548223953000
1548223961875.0000000000,8,-25.9600000000,A01A3A,5,1548223953000
1548223961890.6201171875,8,-28.0000000000,A01A3A,5,1548223953000
1548223961906.2500000000,8,-28.6600000000,A01A3A,5,1548223953000
1548223961921.8798828125,8,-27.3500000000,A01A3A,5,1548223953000
1548223961937.5000000000,8,-23.9300000000,A01A3A,5,1548223953000
1548223961953.1201171875,8,-18.8000000000,A01A3A,5,1548223953000
1548223961968.7500000000,8,-12.8400000000,A01A3A,5,1548223953000
1548223961984.3798828125,8,-7.0000000000,A01A3A,5,1548223953000
1548223962000.0000000000,8,-1.9100000000,A01A3A,5,1548223953000
1548223962015.6201171875,8,2.2300000000,A01A3A,5,1548223953000
1548223962031.2500000000,8,5.7200000000,A01A3A,5,1548223953000
1548223962046.8798828125,8,8.9100000000,A01A3A,5,1548223953000
1548223962062.5000000000,8,12.0100000000,A01A3A,5,1548223953000
1548223962078.1201171875,8,14.8500000000,A01A3A,5,1548223953000
1548223962093.7500000000,8,16.9900000000,A01A3A,5,1548223953000
1548223962109.3798828125,8,18.0400000000,A01A3A,5,1548223953000
1548223962125.0000000000,8,17.8900000000,A01A3A,5,1548223953000
1548223962140.6201171875,8,16.8100000000,A01A3A,5,1548223953000
1548223962156.2500000000,8,15.3600000000,A01A3A,5,1548223953000
1548223962171.8798828125,8,14.0200000000,A01A3A,5,1548223953000
1548223962187.5000000000,8,13.1100000000,A01A3A,5,1548223953000
1548223962203.1201171875,8,12.6200000000,A01A3A,5,1548223953000
1548223962218.7500000000,8,12.3600000000,A01A3A,5,1548223953000
1548223962234.3798828125,8,12.1400000000,A01A3A,5,1548223953000
1548223962250.0000000000,8,11.8000000000,A01A3A,5,1548223953000
1548223962265.6201171875,8,11.3900000000,A01A3A,5,1548223953000
1548223962281.2500000000,8,11.0400000000,A01A3A,5,1548223953000
1548223962296.8798828125,8,10.8900000000,A01A3A,5,1548223953000
1548223962312.5000000000,8,11.0100000000,A01A3A,5,1548223953000
1548223962328.1201171875,8,11.3400000000,A01A3A,5,1548223953000
1548223962343.7500000000,8,11.6700000000,A01A3A,5,1548223953000
1548223962359.3798828125,8,11.6700000000,A01A3A,5,1548223953000
1548223962375.0000000000,8,11.1000000000,A01A3A,5,1548223953000
1548223962390.6201171875,8,9.9000000000,A01A3A,5,1548223953000
1548223962406.2500000000,8,8.2700000000,A01A3A,5,1548223953000
1548223962421.8798828125,8,6.5600000000,A01A3A,5,1548223953000
1548223962437.5000000000,8,5.1000000000,A01A3A,5,1548223953000
1548223962453.1201171875,8,3.9700000000,A01A3A,5,1548223953000
1548223962468.7500000000,8,3.0100000000,A01A3A,5,1548223953000
1548223962484.3798828125,8,1.9500000000,A01A3A,5,1548223953000
1548223962500.0000000000,8,0.6200000000,A01A3A,5,1548223953000
1548223962515.6201171875,8,-0.9100000000,A01A3A,5,1548223953000
1548223962531.2500000000,8,-2.4900000000,A01A3A,5,1548223953000
1548223962546.8798828125,8,-3.9300000000,A01A3A,5,1548223953000
1548223962562.5000000000,8,-5.2900000000,A01A3A,5,1548223953000
1548223962578.1201171875,8,-6.8900000000,A01A3A,5,1548223953000
1548223962593.7500000000,8,-9.0900000000,A01A3A,5,1548223953000
1548223962609.3798828125,8,-12.0400000000,A01A3A,5,1548223953000
1548223962625.0000000000,8,-15.5000000000,A01A3A,5,1548223953000
1548223962640.6201171875,8,-18.7800000000,A01A3A,5,1548223953000
1548223962656.2500000000,8,-21.0200000000,A01A3A,5,1548223953000
1548223962671.8798828125,8,-21.5300000000,A01A3A,5,1548223953000
1548223962687.5000000000,8,-20.0300000000,A01A3A,5,1548223953000
1548223962703.1201171875,8,-16.8100000000,A01A3A,5,1548223953000
1548223962718.7500000000,8,-12.5100000000,A01A3A,5,1548223953000
1548223962734.3798828125,8,-7.8800000000,A01A3A,5,1548223953000
1548223962750.0000000000,8,-3.4300000000,A01A3A,5,1548223953000
1548223962765.6201171875,8,0.7200000000,A01A3A,5,1548223953000
1548223962781.2500000000,8,4.7200000000,A01A3A,5,1548223953000
1548223962796.8798828125,8,8.7500000000,A01A3A,5,1548223953000
1548223962812.5000000000,8,12.6800000000,A01A3A,5,1548223953000
1548223962828.1201171875,8,16.0900000000,A01A3A,5,1548223953000
1548223962843.7500000000,8,18.3900000000,A01A3A,5,1548223953000
1548223962859.3798828125,8,19.2100000000,A01A3A,5,1548223953000
1548223962875.0000000000,8,18.6500000000,A01A3A,5,1548223953000
1548223962890.6201171875,8,17.2800000000,A01A3A,5,1548223953000
1548223962906.2500000000,8,15.8300000000,A01A3A,5,1548223953000
1548223962921.8798828125,8,14.8300000000,A01A3A,5,1548223953000
1548223962937.5000000000,8,14.4000000000,A01A3A,5,1548223953000
1548223962953.1201171875,8,14.1900000000,A01A3A,5,1548223953000
1548223962968.7500000000,8,13.7500000000,A01A3A,5,1548223953000
1548223962984.3798828125,8,12.8600000000,A01A3A,5,1548223953000
1548223963000.0000000000,8,11.7100000000,A01A3A,5,1548223953000
1548223963015.6201171875,8,10.7800000000,A01A3A,5,1548223953000
1548223963031.2500000000,8,10.5500000000,A01A3A,5,1548223953000
1548223963046.8798828125,8,11.1200000000,A01A3A,5,1548223953000
1548223963062.5000000000,8,12.1400000000,A01A3A,5,1548223953000
1548223963078.1201171875,8,12.9500000000,A01A3A,5,1548223953000
1548223963093.7500000000,8,13.0000000000,A01A3A,5,1548223953000
1548223963109.3798828125,8,12.1200000000,A01A3A,5,1548223953000
1548223963125.0000000000,8,10.6500000000,A01A3A,5,1548223953000
1548223963140.6201171875,8,9.1600000000,A01A3A,5,1548223953000
1548223963156.2500000000,8,8.1100000000,A01A3A,5,1548223953000
1548223963171.8798828125,8,7.6100000000,A01A3A,5,1548223953000
1548223963187.5000000000,8,7.3700000000,A01A3A,5,1548223953000
1548223963203.1201171875,8,6.8600000000,A01A3A,5,1548223953000
1548223963218.7500000000,8,5.7100000000,A01A3A,5,1548223953000
1548223963234.3798828125,8,3.8100000000,A01A3A,5,1548223953000
1548223963250.0000000000,8,1.3500000000,A01A3A,5,1548223953000
1548223963265.6201171875,8,-1.3600000000,A01A3A,5,1548223953000
1548223963281.2500000000,8,-4.0900000000,A01A3A,5,1548223953000
1548223963296.8798828125,8,-6.8400000000,A01A3A,5,1548223953000
1548223963312.5000000000,8,-9.7000000000,A01A3A,5,1548223953000
1548223963328.1201171875,8,-12.7200000000,A01A3A,5,1548223953000
1548223963343.7500000000,8,-15.7000000000,A01A3A,5,1548223953000
1548223963359.3798828125,8,-18.2100000000,A01A3A,5,1548223953000
1548223963375.0000000000,8,-19.6800000000,A01A3A,5,1548223953000
1548223963390.6201171875,8,-19.5700000000,A01A3A,5,1548223953000
1548223963406.2500000000,8,-17.6400000000,A01A3A,5,1548223953000
1548223963421.8798828125,8,-13.9800000000,A01A3A,5,1548223953000
1548223963437.5000000000,8,-9.1000000000,A01A3A,5,1548223953000
1548223963453.1201171875,8,-3.7200000000,A01A3A,5,1548223953000
1548223963468.7500000000,8,1.4900000000,A01A3A,5,1548223953000
1548223963484.3798828125,8,6.0500000000,A01A3A,5,1548223953000
1548223963500.0000000000,8,9.7900000000,A01A3A,5,1548223953000
1548223963515.6201171875,8,12.7800000000,A01A3A,5,1548223953000
1548223963531.2500000000,8,15.1800000000,A01A3A,5,1548223953000
1548223963546.8798828125,8,17.0600000000,A01A3A,5,1548223953000
1548223963562.5000000000,8,18.3300000000,A01A3A,5,1548223953000
1548223963578.1201171875,8,18.7800000000,A01A3A,5,1548223953000
1548223963593.7500000000,8,18.2700000000,A01A3A,5,1548223953000
1548223963609.3798828125,8,16.8000000000,A01A3A,5,1548223953000
1548223963625.0000000000,8,14.6500000000,A01A3A,5,1548223953000
1548223963640.6201171875,8,12.3300000000,A01A3A,5,1548223953000
1548223963656.2500000000,8,10.3600000000,A01A3A,5,1548223953000
1548223963671.8798828125,8,9.0800000000,A01A3A,5,1548223953000
1548223963687.5000000000,8,8.5200000000,A01A3A,5,1548223953000
1548223963703.1201171875,8,8.4000000000,A01A3A,5,1548223953000
1548223963718.7500000000,8,8.3200000000,A01A3A,5,1548223953000
1548223963734.3798828125,8,7.9900000000,A01A3A,5,1548223953000
1548223963750.0000000000,8,7.3700000000,A01A3A,5,1548223953000
1548223963765.6201171875,8,6.6100000000,A01A3A,5,1548223953000
1548223963781.2500000000,8,5.9400000000,A01A3A,5,1548223953000
1548223963796.8798828125,8,5.4300000000,A01A3A,5,1548223953000
1548223963812.5000000000,8,4.9100000000,A01A3A,5,1548223953000
1548223963828.1201171875,8,4.0600000000,A01A3A,5,1548223953000
1548223963843.7500000000,8,2.6300000000,A01A3A,5,1548223953000
1548223963859.3798828125,8,0.6000000000,A01A3A,5,1548223953000
1548223963875.0000000000,8,-1.7600000000,A01A3A,5,1548223953000
1548223963890.6201171875,8,-3.9800000000,A01A3A,5,1548223953000
1548223963906.2500000000,8,-5.6900000000,A01A3A,5,1548223953000
1548223963921.8798828125,8,-6.7600000000,A01A3A,5,1548223953000
1548223963937.5000000000,8,-7.4300000000,A01A3A,5,1548223953000
1548223963953.1201171875,8,-8.1800000000,A01A3A,5,1548223953000
1548223963968.7500000000,8,-9.4800000000,A01A3A,5,1548223953000
1548223963984.3798828125,8,-11.6200000000,A01A3A,5,1548223953000
1548223964000.0000000000,8,-14.5800000000,A01A3A,5,1548223953000
1548223964015.6201171875,8,-18.0300000000,A01A3A,5,1548223953000
1548223964031.2500000000,8,-21.5000000000,A01A3A,5,1548223953000
1548223964046.8798828125,8,-24.5300000000,A01A3A,5,1548223953000
1548223964062.5000000000,8,-26.8600000000,A01A3A,5,1548223953000
1548223964078.1201171875,8,-28.3500000000,A01A3A,5,1548223953000
1548223964093.7500000000,8,-28.9000000000,A01A3A,5,1548223953000
1548223964109.3798828125,8,-28.4000000000,A01A3A,5,1548223953000
1548223964125.0000000000,8,-26.6100000000,A01A3A,5,1548223953000
1548223964140.6201171875,8,-23.3300000000,A01A3A,5,1548223953000
1548223964156.2500000000,8,-18.5700000000,A01A3A,5,1548223953000
1548223964171.8798828125,8,-12.7600000000,A01A3A,5,1548223953000
1548223964187.5000000000,8,-6.6700000000,A01A3A,5,1548223953000
1548223964203.1201171875,8,-1.1100000000,A01A3A,5,1548223953000
1548223964218.7500000000,8,3.3000000000,A01A3A,5,1548223953000
1548223964234.3798828125,8,6.4300000000,A01A3A,5,1548223953000
1548223964250.0000000000,8,8.4900000000,A01A3A,5,1548223953000
1548223964265.6201171875,8,9.8800000000,A01A3A,5,1548223953000
1548223964281.2500000000,8,10.8900000000,A01A3A,5,1548223953000
1548223964296.8798828125,8,11.5900000000,A01A3A,5,1548223953000
1548223964312.5000000000,8,11.8500000000,A01A3A,5,1548223953000
1548223964328.1201171875,8,11.5200000000,A01A3A,5,1548223953000
1548223964343.7500000000,8,10.6300000000,A01A3A,5,1548223953000
1548223964359.3798828125,8,9.3800000000,A01A3A,5,1548223953000
1548223964375.0000000000,8,8.1100000000,A01A3A,5,1548223953000
1548223964390.6201171875,8,7.1600000000,A01A3A,5,1548223953000
1548223964406.2500000000,8,6.7600000000,A01A3A,5,1548223953000
1548223964421.8798828125,8,6.9600000000,A01A3A,5,1548223953000
1548223964437.5000000000,8,7.6000000000,A01A3A,5,1548223953000
1548223964453.1201171875,8,8.4300000000,A01A3A,5,1548223953000
1548223964468.7500000000,8,9.0500000000,A01A3A,5,1548223953000
1548223964484.3798828125,8,9.2100000000,A01A3A,5,1548223953000
1548223964500.0000000000,8,8.7700000000,A01A3A,5,1548223953000
1548223964515.6201171875,8,7.8900000000,A01A3A,5,1548223953000
1548223964531.2500000000,8,6.8500000000,A01A3A,5,1548223953000
1548223964546.8798828125,8,6.0000000000,A01A3A,5,1548223953000
1548223964562.5000000000,8,5.3900000000,A01A3A,5,1548223953000
1548223964578.1201171875,8,4.8400000000,A01A3A,5,1548223953000
1548223964593.7500000000,8,3.9800000000,A01A3A,5,1548223953000
1548223964609.3798828125,8,2.4700000000,A01A3A,5,1548223953000
1548223964625.0000000000,8,0.2600000000,A01A3A,5,1548223953000
1548223964640.6201171875,8,-2.3800000000,A01A3A,5,1548223953000
1548223964656.2500000000,8,-4.9800000000,A01A3A,5,1548223953000
1548223964671.8798828125,8,-7.1300000000,A01A3A,5,1548223953000
1548223964687.5000000000,8,-8.7500000000,A01A3A,5,1548223953000
1548223964703.1201171875,8,-10.1500000000,A01A3A,5,1548223953000
1548223964718.7500000000,8,-11.8900000000,A01A3A,5,1548223953000
1548223964734.3798828125,8,-14.4500000000,A01A3A,5,1548223953000
1548223964750.0000000000,8,-17.9500000000,A01A3A,5,1548223953000
1548223964765.6201171875,8,-21.9800000000,A01A3A,5,1548223953000
1548223964781.2500000000,8,-25.7600000000,A01A3A,5,1548223953000
1548223964796.8798828125,8,-28.4700000000,A01A3A,5,1548223953000
1548223964812.5000000000,8,-29.5700000000,A01A3A,5,1548223953000
1548223964828.1201171875,8,-29.0300000000,A01A3A,5,1548223953000
1548223964843.7500000000,8,-27.1500000000,A01A3A,5,1548223953000
1548223964859.3798828125,8,-24.3900000000,A01A3A,5,1548223953000
1548223964875.0000000000,8,-21.0300000000,A01A3A,5,1548223953000
1548223964890.6201171875,8,-17.1200000000,A01A3A,5,1548223953000
1548223964906.2500000000,8,-12.5200000000,A01A3A,5,1548223953000
1548223964921.8798828125,8,-7.2000000000,A01A3A,5,1548223953000
1548223964937.5000000000,8,-1.4200000000,A01A3A,5,1548223953000
1548223964953.1201171875,8,4.2000000000,A01A3A,5,1548223953000
1548223964968.7500000000,8,8.9900000000,A01A3A,5,1548223953000
1548223964984.3798828125,8,12.4700000000,A01A3A,5,1548223953000
1548223965000.0000000000,8,14.5600000000,A01A3A,5,1548223953000
1548223965015.6201171875,8,15.5900000000,A01A3A,5,1548223953000
1548223965031.2500000000,8,16.0100000000,A01A3A,5,1548223953000
1548223965046.8798828125,8,16.2600000000,A01A3A,5,1548223953000
1548223965062.5000000000,8,16.4500000000,A01A3A,5,1548223953000
1548223965078.1201171875,8,16.5100000000,A01A3A,5,1548223953000
1548223965093.7500000000,8,16.2400000000,A01A3A,5,1548223953000
1548223965109.3798828125,8,15.5500000000,A01A3A,5,1548223953000
1548223965125.0000000000,8,14.5500000000,A01A3A,5,1548223953000
1548223965140.6201171875,8,13.5100000000,A01A3A,5,1548223953000
1548223965156.2500000000,8,12.7700000000,A01A3A,5,1548223953000
1548223965171.8798828125,8,12.5100000000,A01A3A,5,1548223953000
1548223965187.5000000000,8,12.7000000000,A01A3A,5,1548223953000
1548223965203.1201171875,8,13.0800000000,A01A3A,5,1548223953000
1548223965218.7500000000,8,13.3000000000,A01A3A,5,1548223953000
1548223965234.3798828125,8,13.1200000000,A01A3A,5,1548223953000
1548223965250.0000000000,8,12.5000000000,A01A3A,5,1548223953000
1548223965265.6201171875,8,11.6300000000,A01A3A,5,1548223953000
1548223965281.2500000000,8,10.7800000000,A01A3A,5,1548223953000
1548223965296.8798828125,8,10.0600000000,A01A3A,5,1548223953000
1548223965312.5000000000,8,9.3700000000,A01A3A,5,1548223953000
1548223965328.1201171875,8,8.4100000000,A01A3A,5,1548223953000
1548223965343.7500000000,8,6.9200000000,A01A3A,5,1548223953000
1548223965359.3798828125,8,4.8500000000,A01A3A,5,1548223953000
1548223965375.0000000000,8,2.4600000000,A01A3A,5,1548223953000
1548223965390.6201171875,8,0.1800000000,A01A3A,5,1548223953000
1548223965406.2500000000,8,-1.6200000000,A01A3A,5,1548223953000
1548223965421.8798828125,8,-2.8800000000,A01A3A,5,1548223953000
1548223965437.5000000000,8,-3.9100000000,A01A3A,5,1548223953000
1548223965453.1201171875,8,-5.2100000000,A01A3A,5,1548223953000
1548223965468.7500000000,8,-7.2100000000,A01A3A,5,1548223953000
1548223965484.3798828125,8,-10.0600000000,A01A3A,5,1548223953000
1548223965500.0000000000,8,-13.5600000000,A01A3A,5,1548223953000
1548223965515.6201171875,8,-17.2500000000,A01A3A,5,1548223953000
1548223965531.2500000000,8,-20.5500000000,A01A3A,5,1548223953000
1548223965546.8798828125,8,-22.9600000000,A01A3A,5,1548223953000
1548223965562.5000000000,8,-24.1100000000,A01A3A,5,1548223953000
1548223965578.1201171875,8,-23.7900000000,A01A3A,5,1548223953000
1548223965593.7500000000,8,-21.9600000000,A01A3A,5,1548223953000
1548223965609.3798828125,8,-18.7400000000,A01A3A,5,1548223953000
1548223965625.0000000000,8,-14.4100000000,A01A3A,5,1548223953000
1548223965640.6201171875,8,-9.3800000000,A01A3A,5,1548223953000
1548223965656.2500000000,8,-4.0700000000,A01A3A,5,1548223953000
1548223965671.8798828125,8,1.1400000000,A01A3A,5,1548223953000
1548223965687.5000000000,8,5.9700000000,A01A3A,5,1548223953000
1548223965703.1201171875,8,10.1600000000,A01A3A,5,1548223953000
1548223965718.7500000000,8,13.5100000000,A01A3A,5,1548223953000
1548223965734.3798828125,8,15.8100000000,A01A3A,5,1548223953000
1548223965750.0000000000,8,16.9500000000,A01A3A,5,1548223953000
1548223965765.6201171875,8,17.0000000000,A01A3A,5,1548223953000
1548223965781.2500000000,8,16.2800000000,A01A3A,5,1548223953000
1548223965796.8798828125,8,15.2700000000,A01A3A,5,1548223953000
1548223965812.5000000000,8,14.4100000000,A01A3A,5,1548223953000
1548223965828.1201171875,8,13.9700000000,A01A3A,5,1548223953000
1548223965843.7500000000,8,13.8800000000,A01A3A,5,1548223953000
1548223965859.3798828125,8,13.8800000000,A01A3A,5,1548223953000
1548223965875.0000000000,8,13.7100000000,A01A3A,5,1548223953000
1548223965890.6201171875,8,13.2700000000,A01A3A,5,1548223953000
1548223965906.2500000000,8,12.7800000000,A01A3A,5,1548223953000
1548223965921.8798828125,8,12.5800000000,A01A3A,5,1548223953000
1548223965937.5000000000,8,12.9200000000,A01A3A,5,1548223953000
1548223965953.1201171875,8,13.7800000000,A01A3A,5,1548223953000
1548223965968.7500000000,8,14.8300000000,A01A3A,5,1548223953000
1548223965984.3798828125,8,15.5100000000,A01A3A,5,1548223953000
1548223966000.0000000000,8,15.3600000000,A01A3A,5,1548223953000
1548223966015.6201171875,8,14.2200000000,A01A3A,5,1548223953000
1548223966031.2500000000,8,12.2900000000,A01A3A,5,1548223953000
1548223966046.8798828125,8,9.9700000000,A01A3A,5,1548223953000
1548223966062.5000000000,8,7.6900000000,A01A3A,5,1548223953000
1548223966078.1201171875,8,5.6500000000,A01A3A,5,1548223953000
1548223966093.7500000000,8,3.8600000000,A01A3A,5,1548223953000
1548223966109.3798828125,8,2.1500000000,A01A3A,5,1548223953000
1548223966125.0000000000,8,0.3800000000,A01A3A,5,1548223953000
1548223966140.6201171875,8,-1.4900000000,A01A3A,5,1548223953000
1548223966156.2500000000,8,-3.3300000000,A01A3A,5,1548223953000
1548223966171.8798828125,8,-5.0200000000,A01A3A,5,1548223953000
1548223966187.5000000000,8,-6.5200000000,A01A3A,5,1548223953000
1548223966203.1201171875,8,-8.0600000000,A01A3A,5,1548223953000
1548223966218.7500000000,8,-9.9500000000,A01A3A,5,1548223953000
1548223966234.3798828125,8,-12.4200000000,A01A3A,5,1548223953000
1548223966250.0000000000,8,-15.4300000000,A01A3A,5,1548223953000
1548223966265.6201171875,8,-18.5300000000,A01A3A,5,1548223953000
1548223966281.2500000000,8,-20.9600000000,A01A3A,5,1548223953000
1548223966296.8798828125,8,-21.9800000000,A01A3A,5,1548223953000
1548223966312.5000000000,8,-21.1200000000,A01A3A,5,1548223953000
1548223966328.1201171875,8,-18.3800000000,A01A3A,5,1548223953000
1548223966343.7500000000,8,-14.2800000000,A01A3A,5,1548223953000
1548223966359.3798828125,8,-9.5800000000,A01A3A,5,1548223953000
1548223966375.0000000000,8,-5.0300000000,A01A3A,5,1548223953000
1548223966390.6201171875,8,-1.1300000000,A01A3A,5,1548223953000
1548223966406.2500000000,8,1.9500000000,A01A3A,5,1548223953000
1548223966421.8798828125,8,4.3000000000,A01A3A,5,1548223953000
1548223966437.5000000000,8,6.0600000000,A01A3A,5,1548223953000
1548223966453.1201171875,8,7.3500000000,A01A3A,5,1548223953000
1548223966468.7500000000,8,8.2100000000,A01A3A,5,1548223953000
1548223966484.3798828125,8,8.6100000000,A01A3A,5,1548223953000
1548223966500.0000000000,8,8.5100000000,A01A3A,5,1548223953000
1548223966515.6201171875,8,7.9400000000,A01A3A,5,1548223953000
1548223966531.2500000000,8,6.9800000000,A01A3A,5,1548223953000
1548223966546.8798828125,8,5.8100000000,A01A3A,5,1548223953000
1548223966562.5000000000,8,4.7500000000,A01A3A,5,1548223953000
1548223966578.1201171875,8,4.0500000000,A01A3A,5,1548223953000
1548223966593.7500000000,8,3.9900000000,A01A3A,5,1548223953000
1548223966609.3798828125,8,4.5900000000,A01A3A,5,1548223953000
1548223966625.0000000000,8,5.7300000000,A01A3A,5,1548223953000
1548223966640.6201171875,8,7.1100000000,A01A3A,5,1548223953000
1548223966656.2500000000,8,8.4400000000,A01A3A,5,1548223953000
1548223966671.8798828125,8,9.4800000000,A01A3A,5,1548223953000
1548223966687.5000000000,8,10.1600000000,A01A3A,5,1548223953000
1548223966703.1201171875,8,10.5400000000,A01A3A,5,1548223953000
1548223966718.7500000000,8,10.6700000000,A01A3A,5,1548223953000
1548223966734.3798828125,8,10.5700000000,A01A3A,5,1548223953000
1548223966750.0000000000,8,10.1700000000,A01A3A,5,1548223953000
1548223966765.6201171875,8,9.4200000000,A01A3A,5,1548223953000
1548223966781.2500000000,8,8.3100000000,A01A3A,5,1548223953000
1548223966796.8798828125,8,6.9400000000,A01A3A,5,1548223953000
1548223966812.5000000000,8,5.4600000000,A01A3A,5,1548223953000
1548223966828.1201171875,8,3.9800000000,A01A3A,5,1548223953000
1548223966843.7500000000,8,2.5200000000,A01A3A,5,1548223953000
1548223966859.3798828125,8,1.0400000000,A01A3A,5,1548223953000
1548223966875.0000000000,8,-0.5500000000,A01A3A,5,1548223953000
1548223966890.6201171875,8,-2.3000000000,A01A3A,5,1548223953000
1548223966906.2500000000,8,-4.2300000000,A01A3A,5,1548223953000
1548223966921.8798828125,8,-6.3200000000,A01A3A,5,1548223953000
1548223966937.5000000000,8,-8.5800000000,A01A3A,5,1548223953000
1548223966953.1201171875,8,-10.9500000000,A01A3A,5,1548223953000
1548223966968.7500000000,8,-13.3000000000,A01A3A,5,1548223953000
1548223966984.3798828125,8,-15.3400000000,A01A3A,5,1548223953000
1548223967000.0000000000,8,-16.5900000000,A01A3A,5,1548223953000
1548223967015.6201171875,8,-16.5500000000,A01A3A,5,1548223953000
1548223967031.2500000000,8,-14.8900000000,A01A3A,5,1548223953000
1548223967046.8798828125,8,-11.6400000000,A01A3A,5,1548223953000
1548223967062.5000000000,8,-7.2400000000,A01A3A,5,1548223953000
1548223967078.1201171875,8,-2.4600000000,A01A3A,5,1548223953000
1548223967093.7500000000,8,1.9900000000,A01A3A,5,1548223953000
1548223967109.3798828125,8,5.6000000000,A01A3A,5,1548223953000
1548223967125.0000000000,8,8.2700000000,A01A3A,5,1548223953000
1548223967140.6201171875,8,10.1900000000,A01A3A,5,1548223953000
1548223967156.2500000000,8,11.6100000000,A01A3A,5,1548223953000
1548223967171.8798828125,8,12.6400000000,A01A3A,5,1548223953000
1548223967187.5000000000,8,13.1700000000,A01A3A,5,1548223953000
1548223967203.1201171875,8,12.9900000000,A01A3A,5,1548223953000
1548223967218.7500000000,8,11.9500000000,A01A3A,5,1548223953000
1548223967234.3798828125,8,10.1500000000,A01A3A,5,1548223953000
1548223967250.0000000000,8,7.9400000000,A01A3A,5,1548223953000
1548223967265.6201171875,8,5.8200000000,A01A3A,5,1548223953000
1548223967281.2500000000,8,4.1900000000,A01A3A,5,1548223953000
1548223967296.8798828125,8,3.1900000000,A01A3A,5,1548223953000
1548223967312.5000000000,8,2.6700000000,A01A3A,5,1548223953000
1548223967328.1201171875,8,2.3100000000,A01A3A,5,1548223953000
1548223967343.7500000000,8,1.8900000000,A01A3A,5,1548223953000
1548223967359.3798828125,8,1.4200000000,A01A3A,5,1548223953000
1548223967375.0000000000,8,1.1600000000,A01A3A,5,1548223953000
1548223967390.6201171875,8,1.4800000000,A01A3A,5,1548223953000
1548223967406.2500000000,8,2.5200000000,A01A3A,5,1548223953000
1548223967421.8798828125,8,4.0700000000,A01A3A,5,1548223953000
1548223967437.5000000000,8,5.5600000000,A01A3A,5,1548223953000
1548223967453.1201171875,8,6.3800000000,A01A3A,5,1548223953000
1548223967468.7500000000,8,6.2500000000,A01A3A,5,1548223953000
1548223967484.3798828125,8,5.3200000000,A01A3A,5,1548223953000
1548223967500.0000000000,8,4.1300000000,A01A3A,5,1548223953000
1548223967515.6201171875,8,3.2000000000,A01A3A,5,1548223953000
1548223967531.2500000000,8,2.6900000000,A01A3A,5,1548223953000
1548223967546.8798828125,8,2.2400000000,A01A3A,5,1548223953000
1548223967562.5000000000,8,1.2400000000,A01A3A,5,1548223953000
1548223967578.1201171875,8,-0.8100000000,A01A3A,5,1548223953000
1548223967593.7500000000,8,-3.9400000000,A01A3A,5,1548223953000
1548223967609.3798828125,8,-7.6700000000,A01A3A,5,1548223953000
1548223967625.0000000000,8,-11.2300000000,A01A3A,5,1548223953000
1548223967640.6201171875,8,-13.8700000000,A01A3A,5,1548223953000
1548223967656.2500000000,8,-15.1900000000,A01A3A,5,1548223953000
1548223967671.8798828125,8,-15.1400000000,A01A3A,5,1548223953000
1548223967687.5000000000,8,-13.9000000000,A01A3A,5,1548223953000
1548223967703.1201171875,8,-11.7300000000,A01A3A,5,1548223953000
1548223967718.7500000000,8,-8.8300000000,A01A3A,5,1548223953000
1548223967734.3798828125,8,-5.3400000000,A01A3A,5,1548223953000
1548223967750.0000000000,8,-1.4300000000,A01A3A,5,1548223953000
1548223967765.6201171875,8,2.7100000000,A01A3A,5,1548223953000
1548223967781.2500000000,8,6.8500000000,A01A3A,5,1548223953000
1548223967796.8798828125,8,10.6500000000,A01A3A,5,1548223953000
1548223967812.5000000000,8,13.7800000000,A01A3A,5,1548223953000
1548223967828.1201171875,8,15.9100000000,A01A3A,5,1548223953000
1548223967843.7500000000,8,16.8600000000,A01A3A,5,1548223953000
1548223967859.3798828125,8,16.6900000000,A01A3A,5,1548223953000
1548223967875.0000000000,8,15.7100000000,A01A3A,5,1548223953000
1548223967890.6201171875,8,14.4100000000,A01A3A,5,1548223953000
1548223967906.2500000000,8,13.2700000000,A01A3A,5,1548223953000
1548223967921.8798828125,8,12.5100000000,A01A3A,5,1548223953000
1548223967937.5000000000,8,12.1300000000,A01A3A,5,1548223953000
1548223967953.1201171875,8,11.9400000000,A01A3A,5,1548223953000
1548223967968.7500000000,8,11.7500000000,A01A3A,5,1548223953000
1548223967984.3798828125,8,11.5600000000,A01A3A,5,1548223953000
1548223968000.0000000000,8,11.4600000000,A01A3A,5,1548223953000
1548223968015.6201171875,8,11.5100000000,A01A3A,5,1548223953000
1548223968031.2500000000,8,11.5900000000,A01A3A,5,1548223953000
1548223968046.8798828125,8,11.3500000000,A01A3A,5,1548223953000
1548223968062.5000000000,8,10.3800000000,A01A3A,5,1548223953000
1548223968078.1201171875,8,8.4700000000,A01A3A,5,1548223953000
1548223968093.7500000000,8,5.8100000000,A01A3A,5,1548223953000
1548223968109.3798828125,8,2.9500000000,A01A3A,5,1548223953000
1548223968125.0000000000,8,0.4900000000,A01A3A,5,1548223953000
1548223968140.6201171875,8,-1.1500000000,A01A3A,5,1548223953000
1548223968156.2500000000,8,-1.9800000000,A01A3A,5,1548223953000
1548223968171.8798828125,8,-2.3800000000,A01A3A,5,1548223953000
1548223968187.5000000000,8,-2.7900000000,A01A3A,5,1548223953000
1548223968203.1201171875,8,-3.5500000000,A01A3A,5,1548223953000
1548223968218.7500000000,8,-4.7200000000,A01A3A,5,1548223953000
1548223968234.3798828125,8,-6.1700000000,A01A3A,5,1548223953000
1548223968250.0000000000,8,-7.7400000000,A01A3A,5,1548223953000
1548223968265.6201171875,8,-9.4300000000,A01A3A,5,1548223953000
1548223968281.2500000000,8,-11.3800000000,A01A3A,5,1548223953000
1548223968296.8798828125,8,-13.7900000000,A01A3A,5,1548223953000
1548223968312.5000000000,8,-16.6900000000,A01A3A,5,1548223953000
1548223968328.1201171875,8,-19.7800000000,A01A3A,5,1548223953000
1548223968343.7500000000,8,-22.4700000000,A01A3A,5,1548223953000
1548223968359.3798828125,8,-24.0200000000,A01A3A,5,1548223953000
1548223968375.0000000000,8,-23.8300000000,A01A3A,5,1548223953000
1548223968390.6201171875,8,-21.6400000000,A01A3A,5,1548223953000
1548223968406.2500000000,8,-17.6800000000,A01A3A,5,1548223953000
1548223968421.8798828125,8,-12.5900000000,A01A3A,5,1548223953000
1548223968437.5000000000,8,-7.1900000000,A01A3A,5,1548223953000
1548223968453.1201171875,8,-2.1700000000,A01A3A,5,1548223953000
1548223968468.7500000000,8,2.1100000000,A01A3A,5,1548223953000
1548223968484.3798828125,8,5.7000000000,A01A3A,5,1548223953000
1548223968500.0000000000,8,8.8700000000,A01A3A,5,1548223953000
1548223968515.6201171875,8,11.8300000000,A01A3A,5,1548223953000
1548223968531.2500000000,8,14.5200000000,A01A3A,5,1548223953000
1548223968546.8798828125,8,16.6000000000,A01A3A,5,1548223953000
1548223968562.5000000000,8,17.6400000000,A01A3A,5,1548223953000
1548223968578.1201171875,8,17.5000000000,A01A3A,5,1548223953000
1548223968593.7500000000,8,16.4200000000,A01A3A,5,1548223953000
1548223968609.3798828125,8,15.0400000000,A01A3A,5,1548223953000
1548223968625.0000000000,8,14.0400000000,A01A3A,5,1548223953000
1548223968640.6201171875,8,13.8200000000,A01A3A,5,1548223953000
1548223968656.2500000000,8,14.3400000000,A01A3A,5,1548223953000
1548223968671.8798828125,8,15.1300000000,A01A3A,5,1548223953000
1548223968687.5000000000,8,15.6700000000,A01A3A,5,1548223953000
1548223968703.1201171875,8,15.6200000000,A01A3A,5,1548223953000
1548223968718.7500000000,8,15.0700000000,A01A3A,5,1548223953000
1548223968734.3798828125,8,14.3800000000,A01A3A,5,1548223953000
1548223968750.0000000000,8,13.9600000000,A01A3A,5,1548223953000
1548223968765.6201171875,8,13.9500000000,A01A3A,5,1548223953000
1548223968781.2500000000,8,14.1600000000,A01A3A,5,1548223953000
1548223968796.8798828125,8,14.1300000000,A01A3A,5,1548223953000
1548223968812.5000000000,8,13.4300000000,A01A3A,5,1548223953000
1548223968828.1201171875,8,11.8300000000,A01A3A,5,1548223953000
1548223968843.7500000000,8,9.4900000000,A01A3A,5,1548223953000
1548223968859.3798828125,8,6.8200000000,A01A3A,5,1548223953000
1548223968875.0000000000,8,4.3400000000,A01A3A,5,1548223953000
1548223968890.6201171875,8,2.4100000000,A01A3A,5,1548223953000
1548223968906.2500000000,8,1.0500000000,A01A3A,5,1548223953000
1548223968921.8798828125,8,0.0100000000,A01A3A,5,1548223953000
1548223968937.5000000000,8,-1.1500000000,A01A3A,5,1548223953000
1548223968953.1201171875,8,-2.8000000000,A01A3A,5,1548223953000
1548223968968.7500000000,8,-5.1000000000,A01A3A,5,1548223953000
1548223968984.3798828125,8,-7.9600000000,A01A3A,5,1548223953000
1548223969000.0000000000,8,-11.0700000000,A01A3A,5,1548223953000
1548223969015.6201171875,8,-14.0400000000,A01A3A,5,1548223953000
1548223969031.2500000000,8,-16.4800000000,A01A3A,5,1548223953000
1548223969046.8798828125,8,-18.0900000000,A01A3A,5,1548223953000
1548223969062.5000000000,8,-18.6400000000,A01A3A,5,1548223953000
1548223969078.1201171875,8,-17.9300000000,A01A3A,5,1548223953000
1548223969093.7500000000,8,-15.8500000000,A01A3A,5,1548223953000
1548223969109.3798828125,8,-12.3400000000,A01A3A,5,1548223953000
1548223969125.0000000000,8,-7.5700000000,A01A3A,5,1548223953000
1548223969140.6201171875,8,-1.9300000000,A01A3A,5,1548223953000
1548223969156.2500000000,8,3.9500000000,A01A3A,5,1548223953000
1548223969171.8798828125,8,9.3700000000,A01A3A,5,1548223953000
1548223969187.5000000000,8,13.7400000000,A01A3A,5,1548223953000
1548223969203.1201171875,8,16.7300000000,A01A3A,5,1548223953000
1548223969218.7500000000,8,18.3400000000,A01A3A,5,1548223953000
1548223969234.3798828125,8,18.8800000000,A01A3A,5,1548223953000
1548223969250.0000000000,8,18.7400000000,A01A3A,5,1548223953000
1548223969265.6201171875,8,18.2800000000,A01A3A,5,1548223953000
1548223969281.2500000000,8,17.6700000000,A01A3A,5,1548223953000
1548223969296.8798828125,8,16.9100000000,A01A3A,5,1548223953000
1548223969312.5000000000,8,15.9200000000,A01A3A,5,1548223953000
1548223969328.1201171875,8,14.7100000000,A01A3A,5,1548223953000
1548223969343.7500000000,8,13.4300000000,A01A3A,5,1548223953000
1548223969359.3798828125,8,12.3500000000,A01A3A,5,1548223953000
1548223969375.0000000000,8,11.7700000000,A01A3A,5,1548223953000
1548223969390.6201171875,8,11.8300000000,A01A3A,5,1548223953000
1548223969406.2500000000,8,12.4300000000,A01A3A,5,1548223953000
1548223969421.8798828125,8,13.2300000000,A01A3A,5,1548223953000
1548223969437.5000000000,8,13.7600000000,A01A3A,5,1548223953000
1548223969453.1201171875,8,13.6900000000,A01A3A,5,1548223953000
1548223969468.7500000000,8,12.9200000000,A01A3A,5,1548223953000
1548223969484.3798828125,8,11.6900000000,A01A3A,5,1548223953000
1548223969500.0000000000,8,10.3500000000,A01A3A,5,1548223953000
1548223969515.6201171875,8,9.2000000000,A01A3A,5,1548223953000
1548223969531.2500000000,8,8.3000000000,A01A3A,5,1548223953000
1548223969546.8798828125,8,7.3900000000,A01A3A,5,1548223953000
1548223969562.5000000000,8,6.1100000000,A01A3A,5,1548223953000
1548223969578.1201171875,8,4.2300000000,A01A3A,5,1548223953000
1548223969593.7500000000,8,1.8300000000,A01A3A,5,1548223953000
1548223969609.3798828125,8,-0.6900000000,A01A3A,5,1548223953000
1548223969625.0000000000,8,-2.8400000000,A01A3A,5,1548223953000
1548223969640.6201171875,8,-4.3400000000,A01A3A,5,1548223953000
1548223969656.2500000000,8,-5.3000000000,A01A3A,5,1548223953000
1548223969671.8798828125,8,-6.1800000000,A01A3A,5,1548223953000
1548223969687.5000000000,8,-7.6000000000,A01A3A,5,1548223953000
1548223969703.1201171875,8,-9.9300000000,A01A3A,5,1548223953000
1548223969718.7500000000,8,-13.1000000000,A01A3A,5,1548223953000
1548223969734.3798828125,8,-16.4700000000,A01A3A,5,1548223953000
1548223969750.0000000000,8,-19.1200000000,A01A3A,5,1548223953000
1548223969765.6201171875,8,-20.1500000000,A01A3A,5,1548223953000
1548223969781.2500000000,8,-19.0100000000,A01A3A,5,1548223953000
1548223969796.8798828125,8,-15.7900000000,A01A3A,5,1548223953000
1548223969812.5000000000,8,-11.0600000000,A01A3A,5,1548223953000
1548223969828.1201171875,8,-5.7100000000,A01A3A,5,1548223953000
1548223969843.7500000000,8,-0.5400000000,A01A3A,5,1548223953000
1548223969859.3798828125,8,3.9400000000,A01A3A,5,1548223953000
1548223969875.0000000000,8,7.6600000000,A01A3A,5,1548223953000
1548223969890.6201171875,8,10.7100000000,A01A3A,5,1548223953000
1548223969906.2500000000,8,13.2600000000,A01A3A,5,1548223953000
1548223969921.8798828125,8,15.2500000000,A01A3A,5,1548223953000
1548223969937.5000000000,8,16.4700000000,A01A3A,5,1548223953000
1548223969953.1201171875,8,16.7200000000,A01A3A,5,1548223953000
1548223969968.7500000000,8,15.9300000000,A01A3A,5,1548223953000
1548223969984.3798828125,8,14.3300000000,A01A3A,5,1548223953000
1548223970000.0000000000,8,12.4000000000,A01A3A,5,1548223953000
1548223970015.6201171875,8,10.6300000000,A01A3A,5,1548223953000
1548223970031.2500000000,8,9.3800000000,A01A3A,5,1548223953000
1548223970046.8798828125,8,8.7100000000,A01A3A,5,1548223953000
1548223970062.5000000000,8,8.4300000000,A01A3A,5,1548223953000
1548223970078.1201171875,8,8.2200000000,A01A3A,5,1548223953000
1548223970093.7500000000,8,7.8000000000,A01A3A,5,1548223953000
1548223970109.3798828125,8,7.1000000000,A01A3A,5,1548223953000
1548223970125.0000000000,8,6.1900000000,A01A3A,5,1548223953000
1548223970140.6201171875,8,5.2500000000,A01A3A,5,1548223953000
1548223970156.2500000000,8,4.3800000000,A01A3A,5,1548223953000
1548223970171.8798828125,8,3.5700000000,A01A3A,5,1548223953000
1548223970187.5000000000,8,2.6700000000,A01A3A,5,1548223953000
1548223970203.1201171875,8,1.5400000000,A01A3A,5,1548223953000
1548223970218.7500000000,8,0.1700000000,A01A3A,5,1548223953000
1548223970234.3798828125,8,-1.2900000000,A01A3A,5,1548223953000
1548223970250.0000000000,8,-2.5500000000,A01A3A,5,1548223953000
1548223970265.6201171875,8,-3.4400000000,A01A3A,5,1548223953000
1548223970281.2500000000,8,-3.9600000000,A01A3A,5,1548223953000
1548223970296.8798828125,8,-4.3600000000,A01A3A,5,1548223953000
1548223970312.5000000000,8,-4.9900000000,A01A3A,5,1548223953000
1548223970328.1201171875,8,-6.1700000000,A01A3A,5,1548223953000
1548223970343.7500000000,8,-8.0500000000,A01A3A,5,1548223953000
1548223970359.3798828125,8,-10.6700000000,A01A3A,5,1548223953000
1548223970375.0000000000,8,-13.8600000000,A01A3A,5,1548223953000
1548223970390.6201171875,8,-17.4400000000,A01A3A,5,1548223953000
1548223970406.2500000000,8,-21.1000000000,A01A3A,5,1548223953000
1548223970421.8798828125,8,-24.4600000000,A01A3A,5,1548223953000
1548223970437.5000000000,8,-27.0300000000,A01A3A,5,1548223953000
1548223970453.1201171875,8,-28.3000000000,A01A3A,5,1548223953000
1548223970468.7500000000,8,-27.8700000000,A01A3A,5,1548223953000
1548223970484.3798828125,8,-25.5600000000,A01A3A,5,1548223953000
1548223970500.0000000000,8,-21.5400000000,A01A3A,5,1548223953000
1548223970515.6201171875,8,-16.3100000000,A01A3A,5,1548223953000
1548223970531.2500000000,8,-10.6000000000,A01A3A,5,1548223953000
1548223970546.8798828125,8,-5.1800000000,A01A3A,5,1548223953000
1548223970562.5000000000,8,-0.6200000000,A01A3A,5,1548223953000
1548223970578.1201171875,8,2.8300000000,A01A3A,5,1548223953000
1548223970593.7500000000,8,5.3800000000,A01A3A,5,1548223953000
1548223970609.3798828125,8,7.5200000000,A01A3A,5,1548223953000
1548223970625.0000000000,8,9.8400000000,A01A3A,5,1548223953000
1548223970640.6201171875,8,12.7300000000,A01A3A,5,1548223953000
1548223970656.2500000000,8,16.1900000000,A01A3A,5,1548223953000
1548223970671.8798828125,8,19.7000000000,A01A3A,5,1548223953000
1548223970687.5000000000,8,22.4400000000,A01A3A,5,1548223953000
1548223970703.1201171875,8,23.5800000000,A01A3A,5,1548223953000
1548223970718.7500000000,8,22.6100000000,A01A3A,5,1548223953000
1548223970734.3798828125,8,19.5900000000,A01A3A,5,1548223953000
1548223970750.0000000000,8,15.1900000000,A01A3A,5,1548223953000
1548223970765.6201171875,8,10.4300000000,A01A3A,5,1548223953000
1548223970781.2500000000,8,6.3200000000,A01A3A,5,1548223953000
1548223970796.8798828125,8,3.6000000000,A01A3A,5,1548223953000
1548223970812.5000000000,8,2.5300000000,A01A3A,5,1548223953000
1548223970828.1201171875,8,2.8500000000,A01A3A,5,1548223953000
1548223970843.7500000000,8,4.0000000000,A01A3A,5,1548223953000
1548223970859.3798828125,8,5.2700000000,A01A3A,5,1548223953000
1548223970875.0000000000,8,6.1000000000,A01A3A,5,1548223953000
1548223970890.6201171875,8,6.1200000000,A01A3A,5,1548223953000
1548223970906.2500000000,8,5.2100000000,A01A3A,5,1548223953000
1548223970921.8798828125,8,3.4600000000,A01A3A,5,1548223953000
1548223970937.5000000000,8,1.1200000000,A01A3A,5,1548223953000
1548223970953.1201171875,8,-1.4800000000,A01A3A,5,1548223953000
1548223970968.7500000000,8,-3.9400000000,A01A3A,5,1548223953000
1548223970984.3798828125,8,-5.8900000000,A01A3A,5,1548223953000
1548223971000.0000000000,8,-7.0700000000,A01A3A,5,1548223953000
1548223971015.6201171875,8,-7.3800000000,A01A3A,5,1548223953000
1548223971031.2500000000,8,-6.9800000000,A01A3A,5,1548223953000
1548223971046.8798828125,8,-6.2700000000,A01A3A,5,1548223953000
1548223971062.5000000000,8,-5.7800000000,A01A3A,5,1548223953000
1548223971078.1201171875,8,-6.0100000000,A01A3A,5,1548223953000
1548223971093.7500000000,8,-7.2700000000,A01A3A,5,1548223953000
1548223971109.3798828125,8,-9.5400000000,A01A3A,5,1548223953000
1548223971125.0000000000,8,-12.4800000000,A01A3A,5,1548223953000
1548223971140.6201171875,8,-15.5300000000,A01A3A,5,1548223953000
1548223971156.2500000000,8,-18.0800000000,A01A3A,5,1548223953000
1548223971171.8798828125,8,-19.6800000000,A01A3A,5,1548223953000
1548223971187.5000000000,8,-20.0800000000,A01A3A,5,1548223953000
1548223971203.1201171875,8,-19.2900000000,A01A3A,5,1548223953000
1548223971218.7500000000,8,-17.4800000000,A01A3A,5,1548223953000
1548223971234.3798828125,8,-14.9900000000,A01A3A,5,1548223953000
1548223971250.0000000000,8,-12.1800000000,A01A3A,5,1548223953000
1548223971265.6201171875,8,-9.3700000000,A01A3A,5,1548223953000
1548223971281.2500000000,8,-6.8100000000,A01A3A,5,1548223953000
1548223971296.8798828125,8,-4.5700000000,A01A3A,5,1548223953000
1548223971312.5000000000,8,-2.5900000000,A01A3A,5,1548223953000
1548223971328.1201171875,8,-0.7700000000,A01A3A,5,1548223953000
1548223971343.7500000000,8,0.9700000000,A01A3A,5,1548223953000
1548223971359.3798828125,8,2.5400000000,A01A3A,5,1548223953000
1548223971375.0000000000,8,3.8000000000,A01A3A,5,1548223953000
1548223971390.6201171875,8,4.5800000000,A01A3A,5,1548223953000
1548223971406.2500000000,8,4.7900000000,A01A3A,5,1548223953000
1548223971421.8798828125,8,4.5100000000,A01A3A,5,1548223953000
1548223971437.5000000000,8,3.9400000000,A01A3A,5,1548223953000
1548223971453.1201171875,8,3.4100000000,A01A3A,5,1548223953000
1548223971468.7500000000,8,3.2800000000,A01A3A,5,1548223953000
1548223971484.3798828125,8,3.7800000000,A01A3A,5,1548223953000
1548223971500.0000000000,8,4.9500000000,A01A3A,5,1548223953000
1548223971515.6201171875,8,6.4800000000,A01A3A,5,1548223953000
1548223971531.2500000000,8,7.9000000000,A01A3A,5,1548223953000
1548223971546.8798828125,8,8.6700000000,A01A3A,5,1548223953000
1548223971562.5000000000,8,8.5300000000,A01A3A,5,1548223953000
1548223971578.1201171875,8,7.6700000000,A01A3A,5,1548223953000
1548223971593.7500000000,8,6.6400000000,A01A3A,5,1548223953000
1548223971609.3798828125,8,6.0300000000,A01A3A,5,1548223953000
1548223971625.0000000000,8,6.1900000000,A01A3A,5,1548223953000
1548223971640.6201171875,8,6.8900000000,A01A3A,5,1548223953000
1548223971656.2500000000,8,7.5500000000,A01A3A,5,1548223953000
1548223971671.8798828125,8,7.4800000000,A01A3A,5,1548223953000
1548223971687.5000000000,8,6.4000000000,A01A3A,5,1548223953000
1548223971703.1201171875,8,4.5300000000,A01A3A,5,1548223953000
1548223971718.7500000000,8,2.4900000000,A01A3A,5,1548223953000
1548223971734.3798828125,8,0.8300000000,A01A3A,5,1548223953000
1548223971750.0000000000,8,-0.2400000000,A01A3A,5,1548223953000
1548223971765.6201171875,8,-0.9700000000,A01A3A,5,1548223953000
1548223971781.2500000000,8,-1.8900000000,A01A3A,5,1548223953000
1548223971796.8798828125,8,-3.4500000000,A01A3A,5,1548223953000
1548223971812.5000000000,8,-5.8100000000,A01A3A,5,1548223953000
1548223971828.1201171875,8,-8.8000000000,A01A3A,5,1548223953000
1548223971843.7500000000,8,-12.0300000000,A01A3A,5,1548223953000
1548223971859.3798828125,8,-15.1000000000,A01A3A,5,1548223953000
1548223971875.0000000000,8,-17.7500000000,A01A3A,5,1548223953000
1548223971890.6201171875,8,-19.8300000000,A01A3A,5,1548223953000
1548223971906.2500000000,8,-21.2700000000,A01A3A,5,1548223953000
1548223971921.8798828125,8,-21.9400000000,A01A3A,5,1548223953000
1548223971937.5000000000,8,-21.6800000000,A01A3A,5,1548223953000
1548223971953.1201171875,8,-20.3000000000,A01A3A,5,1548223953000
1548223971968.7500000000,8,-17.6900000000,A01A3A,5,1548223953000
1548223971984.3798828125,8,-13.9300000000,A01A3A,5,1548223953000
1548223972000.0000000000,8,-9.3300000000,A01A3A,5,1548223953000
1548223972015.6201171875,8,-4.4200000000,A01A3A,5,1548223953000
1548223972031.2500000000,8,0.1700000000,A01A3A,5,1548223953000
1548223972046.8798828125,8,3.9200000000,A01A3A,5,1548223953000
1548223972062.5000000000,8,6.4800000000,A01A3A,5,1548223953000
1548223972078.1201171875,8,7.8700000000,A01A3A,5,1548223953000
1548223972093.7500000000,8,8.3300000000,A01A3A,5,1548223953000
1548223972109.3798828125,8,8.2400000000,A01A3A,5,1548223953000
1548223972125.0000000000,8,7.9400000000,A01A3A,5,1548223953000
1548223972140.6201171875,8,7.6500000000,A01A3A,5,1548223953000
1548223972156.2500000000,8,7.4100000000,A01A3A,5,1548223953000
1548223972171.8798828125,8,7.1900000000,A01A3A,5,1548223953000
1548223972187.5000000000,8,6.9300000000,A01A3A,5,1548223953000
1548223972203.1201171875,8,6.6500000000,A01A3A,5,1548223953000
1548223972218.7500000000,8,6.4200000000,A01A3A,5,1548223953000
1548223972234.3798828125,8,6.3500000000,A01A3A,5,1548223953000
1548223972250.0000000000,8,6.4700000000,A01A3A,5,1548223953000
1548223972265.6201171875,8,6.6900000000,A01A3A,5,1548223953000
1548223972281.2500000000,8,6.8100000000,A01A3A,5,1548223953000
1548223972296.8798828125,8,6.6600000000,A01A3A,5,1548223953000
1548223972312.5000000000,8,6.1600000000,A01A3A,5,1548223953000
1548223972328.1201171875,8,5.4200000000,A01A3A,5,1548223953000
1548223972343.7500000000,8,4.6100000000,A01A3A,5,1548223953000
1548223972359.3798828125,8,3.9600000000,A01A3A,5,1548223953000
1548223972375.0000000000,8,3.4700000000,A01A3A,5,1548223953000
1548223972390.6201171875,8,3.0000000000,A01A3A,5,1548223953000
1548223972406.2500000000,8,2.2500000000,A01A3A,5,1548223953000
1548223972421.8798828125,8,1.0500000000,A01A3A,5,1548223953000
1548223972437.5000000000,8,-0.6200000000,A01A3A,5,1548223953000
1548223972453.1201171875,8,-2.4900000000,A01A3A,5,1548223953000
1548223972468.7500000000,8,-4.1900000000,A01A3A,5,1548223953000
1548223972484.3798828125,8,-5.4400000000,A01A3A,5,1548223953000
1548223972500.0000000000,8,-6.2800000000,A01A3A,5,1548223953000
1548223972515.6201171875,8,-7.0100000000,A01A3A,5,1548223953000
1548223972531.2500000000,8,-8.1000000000,A01A3A,5,1548223953000
1548223972546.8798828125,8,-9.8400000000,A01A3A,5,1548223953000
1548223972562.5000000000,8,-12.2000000000,A01A3A,5,1548223953000
1548223972578.1201171875,8,-14.7800000000,A01A3A,5,1548223953000
1548223972593.7500000000,8,-16.9300000000,A01A3A,5,1548223953000
1548223972609.3798828125,8,-18.0200000000,A01A3A,5,1548223953000
1548223972625.0000000000,8,-17.6700000000,A01A3A,5,1548223953000
1548223972640.6201171875,8,-15.8200000000,A01A3A,5,1548223953000
1548223972656.2500000000,8,-12.7900000000,A01A3A,5,1548223953000
1548223972671.8798828125,8,-9.0400000000,A01A3A,5,1548223953000
1548223972687.5000000000,8,-5.0800000000,A01A3A,5,1548223953000
1548223972703.1201171875,8,-1.2600000000,A01A3A,5,1548223953000
1548223972718.7500000000,8,2.2400000000,A01A3A,5,1548223953000
1548223972734.3798828125,8,5.4200000000,A01A3A,5,1548223953000
1548223972750.0000000000,8,8.2700000000,A01A3A,5,1548223953000
1548223972765.6201171875,8,10.6500000000,A01A3A,5,1548223953000
1548223972781.2500000000,8,12.3400000000,A01A3A,5,1548223953000
1548223972796.8798828125,8,13.0400000000,A01A3A,5,1548223953000
1548223972812.5000000000,8,12.6800000000,A01A3A,5,1548223953000
1548223972828.1201171875,8,11.4900000000,A01A3A,5,1548223953000
1548223972843.7500000000,8,9.9800000000,A01A3A,5,1548223953000
1548223972859.3798828125,8,8.7600000000,A01A3A,5,1548223953000
1548223972875.0000000000,8,8.2300000000,A01A3A,5,1548223953000
1548223972890.6201171875,8,8.3700000000,A01A3A,5,1548223953000
1548223972906.2500000000,8,8.7900000000,A01A3A,5,1548223953000
1548223972921.8798828125,8,8.9800000000,A01A3A,5,1548223953000
1548223972937.5000000000,8,8.6000000000,A01A3A,5,1548223953000
1548223972953.1201171875,8,7.7600000000,A01A3A,5,1548223953000
1548223972968.7500000000,8,6.8600000000,A01A3A,5,1548223953000
1548223972984.3798828125,8,6.4000000000,A01A3A,5,1548223953000
1548223973000.0000000000,8,6.6700000000,A01A3A,5,1548223953000
1548223973015.6201171875,8,7.4900000000,A01A3A,5,1548223953000
1548223973031.2500000000,8,8.3800000000,A01A3A,5,1548223953000
1548223973046.8798828125,8,8.7400000000,A01A3A,5,1548223953000
1548223973062.5000000000,8,8.2000000000,A01A3A,5,1548223953000
1548223973078.1201171875,8,6.7800000000,A01A3A,5,1548223953000
1548223973093.7500000000,8,4.8800000000,A01A3A,5,1548223953000
1548223973109.3798828125,8,2.9600000000,A01A3A,5,1548223953000
1548223973125.0000000000,8,1.3800000000,A01A3A,5,1548223953000
1548223973140.6201171875,8,0.1500000000,A01A3A,5,1548223953000
1548223973156.2500000000,8,-1.0300000000,A01A3A,5,1548223953000
1548223973171.8798828125,8,-2.4800000000,A01A3A,5,1548223953000
1548223973187.5000000000,8,-4.4200000000,A01A3A,5,1548223953000
1548223973203.1201171875,8,-6.8100000000,A01A3A,5,1548223953000
1548223973218.7500000000,8,-9.4000000000,A01A3A,5,1548223953000
1548223973234.3798828125,8,-11.8600000000,A01A3A,5,1548223953000
1548223973250.0000000000,8,-13.9000000000,A01A3A,5,1548223953000
1548223973265.6201171875,8,-15.3600000000,A01A3A,5,1548223953000
1548223973281.2500000000,8,-16.1400000000,A01A3A,5,1548223953000
1548223973296.8798828125,8,-16.2100000000,A01A3A,5,1548223953000
1548223973312.5000000000,8,-15.4800000000,A01A3A,5,1548223953000
1548223973328.1201171875,8,-13.8600000000,A01A3A,5,1548223953000
1548223973343.7500000000,8,-11.3200000000,A01A3A,5,1548223953000
1548223973359.3798828125,8,-7.9300000000,A01A3A,5,1548223953000
1548223973375.0000000000,8,-3.9300000000,A01A3A,5,1548223953000
1548223973390.6201171875,8,0.3100000000,A01A3A,5,1548223953000
1548223973406.2500000000,8,4.3200000000,A01A3A,5,1548223953000
1548223973421.8798828125,8,7.7200000000,A01A3A,5,1548223953000
1548223973437.5000000000,8,10.2500000000,A01A3A,5,1548223953000
1548223973453.1201171875,8,11.9400000000,A01A3A,5,1548223953000
1548223973468.7500000000,8,12.9700000000,A01A3A,5,1548223953000
1548223973484.3798828125,8,13.6400000000,A01A3A,5,1548223953000
1548223973500.0000000000,8,14.1200000000,A01A3A,5,1548223953000
1548223973515.6201171875,8,14.4200000000,A01A3A,5,1548223953000
1548223973531.2500000000,8,14.3500000000,A01A3A,5,1548223953000
1548223973546.8798828125,8,13.7600000000,A01A3A,5,1548223953000
1548223973562.5000000000,8,12.6600000000,A01A3A,5,1548223953000
1548223973578.1201171875,8,11.2400000000,A01A3A,5,1548223953000
1548223973593.7500000000,8,9.8300000000,A01A3A,5,1548223953000
1548223973609.3798828125,8,8.7500000000,A01A3A,5,1548223953000
1548223973625.0000000000,8,8.2000000000,A01A3A,5,1548223953000
1548223973640.6201171875,8,8.2000000000,A01A3A,5,1548223953000
1548223973656.2500000000,8,8.5900000000,A01A3A,5,1548223953000
1548223973671.8798828125,8,9.1400000000,A01A3A,5,1548223953000
1548223973687.5000000000,8,9.5700000000,A01A3A,5,1548223953000
1548223973703.1201171875,8,9.6300000000,A01A3A,5,1548223953000
1548223973718.7500000000,8,9.1500000000,A01A3A,5,1548223953000
1548223973734.3798828125,8,8.1400000000,A01A3A,5,1548223953000
1548223973750.0000000000,8,6.7000000000,A01A3A,5,1548223953000
1548223973765.6201171875,8,5.0100000000,A01A3A,5,1548223953000
1548223973781.2500000000,8,3.2300000000,A01A3A,5,1548223953000
1548223973796.8798828125,8,1.4200000000,A01A3A,5,1548223953000
1548223973812.5000000000,8,-0.4900000000,A01A3A,5,1548223953000
1548223973828.1201171875,8,-2.5500000000,A01A3A,5,1548223953000
1548223973843.7500000000,8,-4.7900000000,A01A3A,5,1548223953000
1548223973859.3798828125,8,-7.1400000000,A01A3A,5,1548223953000
1548223973875.0000000000,8,-9.5200000000,A01A3A,5,1548223953000
1548223973890.6201171875,8,-11.8800000000,A01A3A,5,1548223953000
1548223973906.2500000000,8,-14.2800000000,A01A3A,5,1548223953000
1548223973921.8798828125,8,-16.8200000000,A01A3A,5,1548223953000
1548223973937.5000000000,8,-19.4800000000,A01A3A,5,1548223953000
1548223973953.1201171875,8,-22.0300000000,A01A3A,5,1548223953000
1548223973968.7500000000,8,-24.0700000000,A01A3A,5,1548223953000
1548223973984.3798828125,8,-25.0900000000,A01A3A,5,1548223953000
1548223974000.0000000000,8,-24.7300000000,A01A3A,5,1548223953000
1548223974015.6201171875,8,-22.8700000000,A01A3A,5,1548223953000
1548223974031.2500000000,8,-19.6800000000,A01A3A,5,1548223953000
1548223974046.8798828125,8,-15.6100000000,A01A3A,5,1548223953000
1548223974062.5000000000,8,-11.1400000000,A01A3A,5,1548223953000
1548223974078.1201171875,8,-6.7000000000,A01A3A,5,1548223953000
1548223974093.7500000000,8,-2.5300000000,A01A3A,5,1548223953000
1548223974109.3798828125,8,1.2800000000,A01A3A,5,1548223953000
1548223974125.0000000000,8,4.6900000000,A01A3A,5,1548223953000
1548223974140.6201171875,8,7.5900000000,A01A3A,5,1548223953000
1548223974156.2500000000,8,9.7900000000,A01A3A,5,1548223953000
1548223974171.8798828125,8,11.0900000000,A01A3A,5,1548223953000
1548223974187.5000000000,8,11.4100000000,A01A3A,5,1548223953000
1548223974203.1201171875,8,10.9300000000,A01A3A,5,1548223953000
1548223974218.7500000000,8,10.0700000000,A01A3A,5,1548223953000
1548223974234.3798828125,8,9.3000000000,A01A3A,5,1548223953000
1548223974250.0000000000,8,9.0000000000,A01A3A,5,1548223953000
1548223974265.6201171875,8,9.2400000000,A01A3A,5,1548223953000
1548223974281.2500000000,8,9.8500000000,A01A3A,5,1548223953000
1548223974296.8798828125,8,10.4800000000,A01A3A,5,1548223953000
1548223974312.5000000000,8,10.9100000000,A01A3A,5,1548223953000
1548223974328.1201171875,8,11.1000000000,A01A3A,5,1548223953000
1548223974343.7500000000,8,11.2500000000,A01A3A,5,1548223953000
1548223974359.3798828125,8,11.6200000000,A01A3A,5,1548223953000
1548223974375.0000000000,8,12.2900000000,A01A3A,5,1548223953000
1548223974390.6201171875,8,13.1300000000,A01A3A,5,1548223953000
1548223974406.2500000000,8,13.7900000000,A01A3A,5,1548223953000
1548223974421.8798828125,8,13.8700000000,A01A3A,5,1548223953000
1548223974437.5000000000,8,13.1600000000,A01A3A,5,1548223953000
1548223974453.1201171875,8,11.7100000000,A01A3A,5,1548223953000
1548223974468.7500000000,8,9.8500000000,A01A3A,5,1548223953000
1548223974484.3798828125,8,8.0200000000,A01A3A,5,1548223953000
1548223974500.0000000000,8,6.5400000000,A01A3A,5,1548223953000
1548223974515.6201171875,8,5.4200000000,A01A3A,5,1548223953000
1548223974531.2500000000,8,4.4000000000,A01A3A,5,1548223953000
1548223974546.8798828125,8,3.0500000000,A01A3A,5,1548223953000
1548223974562.5000000000,8,1.1200000000,A01A3A,5,1548223953000
1548223974578.1201171875,8,-1.3800000000,A01A3A,5,1548223953000
1548223974593.7500000000,8,-4.1300000000,A01A3A,5,1548223953000
1548223974609.3798828125,8,-6.7400000000,A01A3A,5,1548223953000
1548223974625.0000000000,8,-9.0100000000,A01A3A,5,1548223953000
1548223974640.6201171875,8,-11.0700000000,A01A3A,5,1548223953000
1548223974656.2500000000,8,-13.2200000000,A01A3A,5,1548223953000
1548223974671.8798828125,8,-15.7200000000,A01A3A,5,1548223953000
1548223974687.5000000000,8,-18.5000000000,A01A3A,5,1548223953000
1548223974703.1201171875,8,-21.0800000000,A01A3A,5,1548223953000
1548223974718.7500000000,8,-22.7400000000,A01A3A,5,1548223953000
1548223974734.3798828125,8,-22.8800000000,A01A3A,5,1548223953000
1548223974750.0000000000,8,-21.3600000000,A01A3A,5,1548223953000
1548223974765.6201171875,8,-18.4800000000,A01A3A,5,1548223953000
1548223974781.2500000000,8,-14.8700000000,A01A3A,5,1548223953000
1548223974796.8798828125,8,-11.0900000000,A01A3A,5,1548223953000
1548223974812.5000000000,8,-7.4600000000,A01A3A,5,1548223953000
1548223974828.1201171875,8,-3.9600000000,A01A3A,5,1548223953000
1548223974843.7500000000,8,-0.4000000000,A01A3A,5,1548223953000
1548223974859.3798828125,8,3.2800000000,A01A3A,5,1548223953000
1548223974875.0000000000,8,6.8100000000,A01A3A,5,1548223953000
1548223974890.6201171875,8,9.5600000000,A01A3A,5,1548223953000
1548223974906.2500000000,8,10.7300000000,A01A3A,5,1548223953000
1548223974921.8798828125,8,9.8200000000,A01A3A,5,1548223953000
1548223974937.5000000000,8,6.8500000000,A01A3A,5,1548223953000
1548223974953.1201171875,8,2.4800000000,A01A3A,5,1548223953000
1548223974968.7500000000,8,-2.1600000000,A01A3A,5,1548223953000
1548223974984.3798828125,8,-5.9400000000,A01A3A,5,1548223953000
1548223975000.0000000000,8,-8.1000000000,A01A3A,5,1548223953000
1548223975015.6201171875,8,-8.5700000000,A01A3A,5,1548223953000
1548223975031.2500000000,8,-7.8100000000,A01A3A,5,1548223953000
1548223975046.8798828125,8,-6.5600000000,A01A3A,5,1548223953000
1548223975062.5000000000,8,-5.3200000000,A01A3A,5,1548223953000
1548223975078.1201171875,8,-4.2300000000,A01A3A,5,1548223953000
1548223975093.7500000000,8,-3.1000000000,A01A3A,5,1548223953000
1548223975109.3798828125,8,-1.6500000000,A01A3A,5,1548223953000
1548223975125.0000000000,8,0.1100000000,A01A3A,5,1548223953000
1548223975140.6201171875,8,1.8400000000,A01A3A,5,1548223953000
1548223975156.2500000000,8,2.9800000000,A01A3A,5,1548223953000
1548223975171.8798828125,8,3.0700000000,A01A3A,5,1548223953000
1548223975187.5000000000,8,2.0300000000,A01A3A,5,1548223953000
1548223975203.1201171875,8,0.2300000000,A01A3A,5,1548223953000
1548223975218.7500000000,8,-1.7000000000,A01A3A,5,1548223953000
1548223975234.3798828125,8,-3.2500000000,A01A3A,5,1548223953000
1548223975250.0000000000,8,-4.2100000000,A01A3A,5,1548223953000
1548223975265.6201171875,8,-4.7900000000,A01A3A,5,1548223953000
1548223975281.2500000000,8,-5.4400000000,A01A3A,5,1548223953000
1548223975296.8798828125,8,-6.4900000000,A01A3A,5,1548223953000
1548223975312.5000000000,8,-8.0500000000,A01A3A,5,1548223953000
1548223975328.1201171875,8,-9.9000000000,A01A3A,5,1548223953000
1548223975343.7500000000,8,-11.6900000000,A01A3A,5,1548223953000
1548223975359.3798828125,8,-13.1600000000,A01A3A,5,1548223953000
1548223975375.0000000000,8,-14.3100000000,A01A3A,5,1548223953000
1548223975390.6201171875,8,-15.3900000000,A01A3A,5,1548223953000
1548223975406.2500000000,8,-16.7500000000,A01A3A,5,1548223953000
1548223975421.8798828125,8,-18.6100000000,A01A3A,5,1548223953000
1548223975437.5000000000,8,-20.8600000000,A01A3A,5,1548223953000
1548223975453.1201171875,8,-23.0300000000,A01A3A,5,1548223953000
1548223975468.7500000000,8,-24.4600000000,A01A3A,5,1548223953000
1548223975484.3798828125,8,-24.5500000000,A01A3A,5,1548223953000
1548223975500.0000000000,8,-23.0000000000,A01A3A,5,1548223953000
1548223975515.6201171875,8,-19.9400000000,A01A3A,5,1548223953000
1548223975531.2500000000,8,-15.8600000000,A01A3A,5,1548223953000
1548223975546.8798828125,8,-11.4000000000,A01A3A,5,1548223953000
1548223975562.5000000000,8,-7.0700000000,A01A3A,5,1548223953000
1548223975578.1201171875,8,-3.1200000000,A01A3A,5,1548223953000
1548223975593.7500000000,8,0.4400000000,A01A3A,5,1548223953000
1548223975609.3798828125,8,3.7200000000,A01A3A,5,1548223953000
1548223975625.0000000000,8,6.6800000000,A01A3A,5,1548223953000
1548223975640.6201171875,8,9.1000000000,A01A3A,5,1548223953000
1548223975656.2500000000,8,10.6900000000,A01A3A,5,1548223953000
1548223975671.8798828125,8,11.2400000000,A01A3A,5,1548223953000
1548223975687.5000000000,8,10.8500000000,A01A3A,5,1548223953000
1548223975703.1201171875,8,9.9400000000,A01A3A,5,1548223953000
1548223975718.7500000000,8,9.1100000000,A01A3A,5,1548223953000
1548223975734.3798828125,8,8.7900000000,A01A3A,5,1548223953000
1548223975750.0000000000,8,9.1300000000,A01A3A,5,1548223953000
1548223975765.6201171875,8,9.8100000000,A01A3A,5,1548223953000
1548223975781.2500000000,8,10.3300000000,A01A3A,5,1548223953000
1548223975796.8798828125,8,10.2000000000,A01A3A,5,1548223953000
1548223975812.5000000000,8,9.2400000000,A01A3A,5,1548223953000
1548223975828.1201171875,8,7.6500000000,A01A3A,5,1548223953000
1548223975843.7500000000,8,5.9400000000,A01A3A,5,1548223953000
1548223975859.3798828125,8,4.6600000000,A01A3A,5,1548223953000
1548223975875.0000000000,8,4.1100000000,A01A3A,5,1548223953000
1548223975890.6201171875,8,4.1500000000,A01A3A,5,1548223953000
1548223975906.2500000000,8,4.3600000000,A01A3A,5,1548223953000
1548223975921.8798828125,8,4.2000000000,A01A3A,5,1548223953000
1548223975937.5000000000,8,3.3600000000,A01A3A,5,1548223953000
1548223975953.1201171875,8,1.9000000000,A01A3A,5,1548223953000
1548223975968.7500000000,8,0.2900000000,A01A3A,5,1548223953000
1548223975984.3798828125,8,-0.9800000000,A01A3A,5,1548223953000
1548223976000.0000000000,8,-1.6500000000,A01A3A,5,1548223953000
1548223976015.6201171875,8,-1.8700000000,A01A3A,5,1548223953000
1548223976031.2500000000,8,-2.1400000000,A01A3A,5,1548223953000
1548223976046.8798828125,8,-2.9300000000,A01A3A,5,1548223953000
1548223976062.5000000000,8,-4.4200000000,A01A3A,5,1548223953000
1548223976078.1201171875,8,-6.3900000000,A01A3A,5,1548223953000
1548223976093.7500000000,8,-8.3600000000,A01A3A,5,1548223953000
1548223976109.3798828125,8,-9.9700000000,A01A3A,5,1548223953000
1548223976125.0000000000,8,-11.2500000000,A01A3A,5,1548223953000
1548223976140.6201171875,8,-12.5000000000,A01A3A,5,1548223953000
1548223976156.2500000000,8,-14.1000000000,A01A3A,5,1548223953000
1548223976171.8798828125,8,-16.1200000000,A01A3A,5,1548223953000
1548223976187.5000000000,8,-18.1400000000,A01A3A,5,1548223953000
1548223976203.1201171875,8,-19.4300000000,A01A3A,5,1548223953000
1548223976218.7500000000,8,-19.2000000000,A01A3A,5,1548223953000
1548223976234.3798828125,8,-17.0600000000,A01A3A,5,1548223953000
1548223976250.0000000000,8,-13.1700000000,A01A3A,5,1548223953000
1548223976265.6201171875,8,-8.1900000000,A01A3A,5,1548223953000
1548223976281.2500000000,8,-2.9900000000,A01A3A,5,1548223953000
1548223976296.8798828125,8,1.6600000000,A01A3A,5,1548223953000
1548223976312.5000000000,8,5.3800000000,A01A3A,5,1548223953000
1548223976328.1201171875,8,8.1900000000,A01A3A,5,1548223953000
1548223976343.7500000000,8,10.3800000000,A01A3A,5,1548223953000
1548223976359.3798828125,8,12.2600000000,A01A3A,5,1548223953000
1548223976375.0000000000,8,13.9500000000,A01A3A,5,1548223953000
1548223976390.6201171875,8,15.3400000000,A01A3A,5,1548223953000
1548223976406.2500000000,8,16.1800000000,A01A3A,5,1548223953000
1548223976421.8798828125,8,16.2500000000,A01A3A,5,1548223953000
1548223976437.5000000000,8,15.5900000000,A01A3A,5,1548223953000
1548223976453.1201171875,8,14.4800000000,A01A3A,5,1548223953000
1548223976468.7500000000,8,13.3900000000,A01A3A,5,1548223953000
1548223976484.3798828125,8,12.7200000000,A01A3A,5,1548223953000
1548223976500.0000000000,8,12.7000000000,A01A3A,5,1548223953000
1548223976515.6201171875,8,13.1900000000,A01A3A,5,1548223953000
1548223976531.2500000000,8,13.8600000000,A01A3A,5,1548223953000
1548223976546.8798828125,8,14.3300000000,A01A3A,5,1548223953000
1548223976562.5000000000,8,14.3900000000,A01A3A,5,1548223953000
1548223976578.1201171875,8,14.0400000000,A01A3A,5,1548223953000
1548223976593.7500000000,8,13.4600000000,A01A3A,5,1548223953000
1548223976609.3798828125,8,12.8400000000,A01A3A,5,1548223953000
1548223976625.0000000000,8,12.2500000000,A01A3A,5,1548223953000
1548223976640.6201171875,8,11.5600000000,A01A3A,5,1548223953000
1548223976656.2500000000,8,10.5500000000,A01A3A,5,1548223953000
1548223976671.8798828125,8,8.9700000000,A01A3A,5,1548223953000
1548223976687.5000000000,8,6.7800000000,A01A3A,5,1548223953000
1548223976703.1201171875,8,4.1600000000,A01A3A,5,1548223953000
1548223976718.7500000000,8,1.4700000000,A01A3A,5,1548223953000
1548223976734.3798828125,8,-0.9200000000,A01A3A,5,1548223953000
1548223976750.0000000000,8,-2.8100000000,A01A3A,5,1548223953000
1548223976765.6201171875,8,-4.2200000000,A01A3A,5,1548223953000
1548223976781.2500000000,8,-5.3800000000,A01A3A,5,1548223953000
1548223976796.8798828125,8,-6.5700000000,A01A3A,5,1548223953000
1548223976812.5000000000,8,-7.9900000000,A01A3A,5,1548223953000
1548223976828.1201171875,8,-9.7200000000,A01A3A,5,1548223953000
1548223976843.7500000000,8,-11.7400000000,A01A3A,5,1548223953000
1548223976859.3798828125,8,-14.0100000000,A01A3A,5,1548223953000
1548223976875.0000000000,8,-16.5500000000,A01A3A,5,1548223953000
1548223976890.6201171875,8,-19.3800000000,A01A3A,5,1548223953000
1548223976906.2500000000,8,-22.4100000000,A01A3A,5,1548223953000
1548223976921.8798828125,8,-25.3400000000,A01A3A,5,1548223953000
1548223976937.5000000000,8,-27.6000000000,A01A3A,5,1548223953000
1548223976953.1201171875,8,-28.5000000000,A01A3A,5,1548223953000
1548223976968.7500000000,8,-27.5100000000,A01A3A,5,1548223953000
1548223976984.3798828125,8,-24.4600000000,A01A3A,5,1548223953000
1548223977000.0000000000,8,-19.6600000000,A01A3A,5,1548223953000
1548223977015.6201171875,8,-13.8700000000,A01A3A,5,1548223953000
1548223977031.2500000000,8,-7.9100000000,A01A3A,5,1548223953000
1548223977046.8798828125,8,-2.5000000000,A01A3A,5,1548223953000
1548223977062.5000000000,8,2.0200000000,A01A3A,5,1548223953000
1548223977078.1201171875,8,5.7000000000,A01A3A,5,1548223953000
1548223977093.7500000000,8,8.7900000000,A01A3A,5,1548223953000
1548223977109.3798828125,8,11.4800000000,A01A3A,5,1548223953000
1548223977125.0000000000,8,13.7700000000,A01A3A,5,1548223953000
1548223977140.6201171875,8,15.4000000000,A01A3A,5,1548223953000
1548223977156.2500000000,8,16.1100000000,A01A3A,5,1548223953000
1548223977171.8798828125,8,15.8200000000,A01A3A,5,1548223953000
1548223977187.5000000000,8,14.8000000000,A01A3A,5,1548223953000
1548223977203.1201171875,8,13.5700000000,A01A3A,5,1548223953000
1548223977218.7500000000,8,12.6500000000,A01A3A,5,1548223953000
1548223977234.3798828125,8,12.3400000000,A01A3A,5,1548223953000
1548223977250.0000000000,8,12.5400000000,A01A3A,5,1548223953000
1548223977265.6201171875,8,12.9400000000,A01A3A,5,1548223953000
1548223977281.2500000000,8,13.1800000000,A01A3A,5,1548223953000
1548223977296.8798828125,8,13.0700000000,A01A3A,5,1548223953000
1548223977312.5000000000,8,12.7000000000,A01A3A,5,1548223953000
1548223977328.1201171875,8,12.2800000000,A01A3A,5,1548223953000
1548223977343.7500000000,8,11.9300000000,A01A3A,5,1548223953000
1548223977359.3798828125,8,11.5900000000,A01A3A,5,1548223953000
1548223977375.0000000000,8,11.0000000000,A01A3A,5,1548223953000
1548223977390.6201171875,8,9.9200000000,A01A3A,5,1548223953000
1548223977406.2500000000,8,8.2600000000,A01A3A,5,1548223953000
1548223977421.8798828125,8,6.2100000000,A01A3A,5,1548223953000
1548223977437.5000000000,8,4.1400000000,A01A3A,5,1548223953000
1548223977453.1201171875,8,2.3800000000,A01A3A,5,1548223953000
1548223977468.7500000000,8,1.1400000000,A01A3A,5,1548223953000
1548223977484.3798828125,8,0.3400000000,A01A3A,5,1548223953000
1548223977500.0000000000,8,-0.3100000000,A01A3A,5,1548223953000
1548223977515.6201171875,8,-1.2100000000,A01A3A,5,1548223953000
1548223977531.2500000000,8,-2.6600000000,A01A3A,5,1548223953000
1548223977546.8798828125,8,-4.7400000000,A01A3A,5,1548223953000
1548223977562.5000000000,8,-7.2500000000,A01A3A,5,1548223953000
1548223977578.1201171875,8,-9.8300000000,A01A3A,5,1548223953000
1548223977593.7500000000,8,-12.1400000000,A01A3A,5,1548223953000
1548223977609.3798828125,8,-14.0700000000,A01A3A,5,1548223953000
1548223977625.0000000000,8,-15.8400000000,A01A3A,5,1548223953000
1548223977640.6201171875,8,-17.8000000000,A01A3A,5,1548223953000
1548223977656.2500000000,8,-20.2800000000,A01A3A,5,1548223953000
1548223977671.8798828125,8,-23.2200000000,A01A3A,5,1548223953000
1548223977687.5000000000,8,-26.1900000000,A01A3A,5,1548223953000
1548223977703.1201171875,8,-28.4400000000,A01A3A,5,1548223953000
1548223977718.7500000000,8,-29.2700000000,A01A3A,5,1548223953000
1548223977734.3798828125,8,-28.2700000000,A01A3A,5,1548223953000
1548223977750.0000000000,8,-25.5100000000,A01A3A,5,1548223953000
1548223977765.6201171875,8,-21.4500000000,A01A3A,5,1548223953000
1548223977781.2500000000,8,-16.6900000000,A01A3A,5,1548223953000
1548223977796.8798828125,8,-11.8000000000,A01A3A,5,1548223953000
1548223977812.5000000000,8,-7.1000000000,A01A3A,5,1548223953000
1548223977828.1201171875,8,-2.7000000000,A01A3A,5,1548223953000
1548223977843.7500000000,8,1.3600000000,A01A3A,5,1548223953000
1548223977859.3798828125,8,5.0800000000,A01A3A,5,1548223953000
1548223977875.0000000000,8,8.3400000000,A01A3A,5,1548223953000
1548223977890.6201171875,8,10.9700000000,A01A3A,5,1548223953000
1548223977906.2500000000,8,12.7900000000,A01A3A,5,1548223953000
1548223977921.8798828125,8,13.7200000000,A01A3A,5,1548223953000
1548223977937.5000000000,8,13.9100000000,A01A3A,5,1548223953000
1548223977953.1201171875,8,13.6700000000,A01A3A,5,1548223953000
1548223977968.7500000000,8,13.4200000000,A01A3A,5,1548223953000
1548223977984.3798828125,8,13.4800000000,A01A3A,5,1548223953000
1548223978000.0000000000,8,13.9300000000,A01A3A,5,1548223953000
1548223978015.6201171875,8,14.5800000000,A01A3A,5,1548223953000
1548223978031.2500000000,8,15.1500000000,A01A3A,5,1548223953000
1548223978046.8798828125,8,15.4200000000,A01A3A,5,1548223953000
1548223978062.5000000000,8,15.4100000000,A01A3A,5,1548223953000
1548223978078.1201171875,8,15.3500000000,A01A3A,5,1548223953000
1548223978093.7500000000,8,15.4700000000,A01A3A,5,1548223953000
1548223978109.3798828125,8,15.8400000000,A01A3A,5,1548223953000
1548223978125.0000000000,8,16.2300000000,A01A3A,5,1548223953000
1548223978140.6201171875,8,16.2300000000,A01A3A,5,1548223953000
1548223978156.2500000000,8,15.4800000000,A01A3A,5,1548223953000
1548223978171.8798828125,8,13.8500000000,A01A3A,5,1548223953000
1548223978187.5000000000,8,11.6000000000,A01A3A,5,1548223953000
1548223978203.1201171875,8,9.1600000000,A01A3A,5,1548223953000
1548223978218.7500000000,8,6.9900000000,A01A3A,5,1548223953000
1548223978234.3798828125,8,5.3400000000,A01A3A,5,1548223953000
1548223978250.0000000000,8,4.1200000000,A01A3A,5,1548223953000
1548223978265.6201171875,8,3.0300000000,A01A3A,5,1548223953000
1548223978281.2500000000,8,1.7300000000,A01A3A,5,1548223953000
1548223978296.8798828125,8,0.0500000000,A01A3A,5,1548223953000
1548223978312.5000000000,8,-1.9100000000,A01A3A,5,1548223953000
1548223978328.1201171875,8,-3.9100000000,A01A3A,5,1548223953000
1548223978343.7500000000,8,-5.7200000000,A01A3A,5,1548223953000
1548223978359.3798828125,8,-7.2700000000,A01A3A,5,1548223953000
1548223978375.0000000000,8,-8.8100000000,A01A3A,5,1548223953000
1548223978390.6201171875,8,-10.7400000000,A01A3A,5,1548223953000
1548223978406.2500000000,8,-13.3900000000,A01A3A,5,1548223953000
1548223978421.8798828125,8,-16.8100000000,A01A3A,5,1548223953000
1548223978437.5000000000,8,-20.6300000000,A01A3A,5,1548223953000
1548223978453.1201171875,8,-24.0900000000,A01A3A,5,1548223953000
1548223978468.7500000000,8,-26.4100000000,A01A3A,5,1548223953000
1548223978484.3798828125,8,-27.0100000000,A01A3A,5,1548223953000
1548223978500.0000000000,8,-25.7700000000,A01A3A,5,1548223953000
1548223978515.6201171875,8,-23.0400000000,A01A3A,5,1548223953000
1548223978531.2500000000,8,-19.3500000000,A01A3A,5,1548223953000
1548223978546.8798828125,8,-15.1800000000,A01A3A,5,1548223953000
1548223978562.5000000000,8,-10.7300000000,A01A3A,5,1548223953000
1548223978578.1201171875,8,-5.9800000000,A01A3A,5,1548223953000
1548223978593.7500000000,8,-0.8900000000,A01A3A,5,1548223953000
1548223978609.3798828125,8,4.2700000000,A01A3A,5,1548223953000
1548223978625.0000000000,8,8.9700000000,A01A3A,5,1548223953000
1548223978640.6201171875,8,12.4700000000,A01A3A,5,1548223953000
1548223978656.2500000000,8,14.2900000000,A01A3A,5,1548223953000
1548223978671.8798828125,8,14.4200000000,A01A3A,5,1548223953000
1548223978687.5000000000,8,13.4000000000,A01A3A,5,1548223953000
1548223978703.1201171875,8,12.0200000000,A01A3A,5,1548223953000
1548223978718.7500000000,8,10.9400000000,A01A3A,5,1548223953000
1548223978734.3798828125,8,10.4400000000,A01A3A,5,1548223953000
1548223978750.0000000000,8,10.3400000000,A01A3A,5,1548223953000
1548223978765.6201171875,8,10.3000000000,A01A3A,5,1548223953000
1548223978781.2500000000,8,10.0000000000,A01A3A,5,1548223953000
1548223978796.8798828125,8,9.4800000000,A01A3A,5,1548223953000
1548223978812.5000000000,8,8.9900000000,A01A3A,5,1548223953000
1548223978828.1201171875,8,8.9000000000,A01A3A,5,1548223953000
1548223978843.7500000000,8,9.4000000000,A01A3A,5,1548223953000
1548223978859.3798828125,8,10.3800000000,A01A3A,5,1548223953000
1548223978875.0000000000,8,11.4700000000,A01A3A,5,1548223953000
1548223978890.6201171875,8,12.2400000000,A01A3A,5,1548223953000
1548223978906.2500000000,8,12.4100000000,A01A3A,5,1548223953000
1548223978921.8798828125,8,11.8600000000,A01A3A,5,1548223953000
1548223978937.5000000000,8,10.7300000000,A01A3A,5,1548223953000
1548223978953.1201171875,8,9.3000000000,A01A3A,5,1548223953000
1548223978968.7500000000,8,7.8100000000,A01A3A,5,1548223953000
1548223978984.3798828125,8,6.3800000000,A01A3A,5,1548223953000
1548223979000.0000000000,8,4.9700000000,A01A3A,5,1548223953000
1548223979015.6201171875,8,3.4600000000,A01A3A,5,1548223953000
1548223979031.2500000000,8,1.7100000000,A01A3A,5,1548223953000
1548223979046.8798828125,8,-0.3500000000,A01A3A,5,1548223953000
1548223979062.5000000000,8,-2.6300000000,A01A3A,5,1548223953000
1548223979078.1201171875,8,-4.9900000000,A01A3A,5,1548223953000
1548223979093.7500000000,8,-7.3100000000,A01A3A,5,1548223953000
1548223979109.3798828125,8,-9.5700000000,A01A3A,5,1548223953000
1548223979125.0000000000,8,-11.8600000000,A01A3A,5,1548223953000
1548223979140.6201171875,8,-14.3300000000,A01A3A,5,1548223953000
1548223979156.2500000000,8,-17.0300000000,A01A3A,5,1548223953000
1548223979171.8798828125,8,-19.8400000000,A01A3A,5,1548223953000
1548223979187.5000000000,8,-22.3700000000,A01A3A,5,1548223953000
1548223979203.1201171875,8,-24.0600000000,A01A3A,5,1548223953000
1548223979218.7500000000,8,-24.3200000000,A01A3A,5,1548223953000
1548223979234.3798828125,8,-22.8200000000,A01A3A,5,1548223953000
1548223979250.0000000000,8,-19.5500000000,A01A3A,5,1548223953000
1548223979265.6201171875,8,-14.9100000000,A01A3A,5,1548223953000
1548223979281.2500000000,8,-9.5200000000,A01A3A,5,1548223953000
1548223979296.8798828125,8,-4.0500000000,A01A3A,5,1548223953000
1548223979312.5000000000,8,1.0700000000,A01A3A,5,1548223953000
1548223979328.1201171875,8,5.6900000000,A01A3A,5,1548223953000
1548223979343.7500000000,8,9.8200000000,A01A3A,5,1548223953000
1548223979359.3798828125,8,13.4700000000,A01A3A,5,1548223953000
1548223979375.0000000000,8,16.4900000000,A01A3A,5,1548223953000
1548223979390.6201171875,8,18.5900000000,A01A3A,5,1548223953000
1548223979406.2500000000,8,19.5000000000,A01A3A,5,1548223953000
1548223979421.8798828125,8,19.1900000000,A01A3A,5,1548223953000
1548223979437.5000000000,8,18.0400000000,A01A3A,5,1548223953000
1548223979453.1201171875,8,16.6900000000,A01A3A,5,1548223953000
1548223979468.7500000000,8,15.7700000000,A01A3A,5,1548223953000
1548223979484.3798828125,8,15.6100000000,A01A3A,5,1548223953000
1548223979500.0000000000,8,16.1000000000,A01A3A,5,1548223953000
1548223979515.6201171875,8,16.8100000000,A01A3A,5,1548223953000
1548223979531.2500000000,8,17.2800000000,A01A3A,5,1548223953000
1548223979546.8798828125,8,17.2800000000,A01A3A,5,1548223953000
1548223979562.5000000000,8,16.9300000000,A01A3A,5,1548223953000
1548223979578.1201171875,8,16.5500000000,A01A3A,5,1548223953000
1548223979593.7500000000,8,16.4200000000,A01A3A,5,1548223953000
1548223979609.3798828125,8,16.5300000000,A01A3A,5,1548223953000
1548223979625.0000000000,8,16.5700000000,A01A3A,5,1548223953000
1548223979640.6201171875,8,16.1600000000,A01A3A,5,1548223953000
1548223979656.2500000000,8,15.0000000000,A01A3A,5,1548223953000
1548223979671.8798828125,8,13.1700000000,A01A3A,5,1548223953000
1548223979687.5000000000,8,11.0000000000,A01A3A,5,1548223953000
1548223979703.1201171875,8,8.9300000000,A01A3A,5,1548223953000
1548223979718.7500000000,8,7.2200000000,A01A3A,5,1548223953000
1548223979734.3798828125,8,5.8300000000,A01A3A,5,1548223953000
1548223979750.0000000000,8,4.4600000000,A01A3A,5,1548223953000
1548223979765.6201171875,8,2.7500000000,A01A3A,5,1548223953000
1548223979781.2500000000,8,0.5700000000,A01A3A,5,1548223953000
1548223979796.8798828125,8,-2.0200000000,A01A3A,5,1548223953000
1548223979812.5000000000,8,-4.7600000000,A01A3A,5,1548223953000
1548223979828.1201171875,8,-7.4600000000,A01A3A,5,1548223953000
1548223979843.7500000000,8,-10.1100000000,A01A3A,5,1548223953000
1548223979859.3798828125,8,-12.9600000000,A01A3A,5,1548223953000
1548223979875.0000000000,8,-16.2700000000,A01A3A,5,1548223953000
1548223979890.6201171875,8,-20.1500000000,A01A3A,5,1548223953000
1548223979906.2500000000,8,-24.3200000000,A01A3A,5,1548223953000
1548223979921.8798828125,8,-28.2100000000,A01A3A,5,1548223953000
1548223979937.5000000000,8,-31.1100000000,A01A3A,5,1548223953000
1548223979953.1201171875,8,-32.4100000000,A01A3A,5,1548223953000
1548223979968.7500000000,8,-31.8500000000,A01A3A,5,1548223953000
1548223979984.3798828125,8,-29.5200000000,A01A3A,5,1548223953000
1548223980000.0000000000,8,-25.7600000000,A01A3A,5,1548223953000
1548223980015.6201171875,8,-21.0400000000,A01A3A,5,1548223953000
1548223980031.2500000000,8,-15.7500000000,A01A3A,5,1548223953000
1548223980046.8798828125,8,-10.2100000000,A01A3A,5,1548223953000
1548223980062.5000000000,8,-4.6600000000,A01A3A,5,1548223953000
1548223980078.1201171875,8,0.6300000000,A01A3A,5,1548223953000
1548223980093.7500000000,8,5.3600000000,A01A3A,5,1548223953000
1548223980109.3798828125,8,9.1600000000,A01A3A,5,1548223953000
1548223980125.0000000000,8,11.7500000000,A01A3A,5,1548223953000
1548223980140.6201171875,8,13.0000000000,A01A3A,5,1548223953000
1548223980156.2500000000,8,13.0000000000,A01A3A,5,1548223953000
1548223980171.8798828125,8,12.1200000000,A01A3A,5,1548223953000
1548223980187.5000000000,8,10.8600000000,A01A3A,5,1548223953000
1548223980203.1201171875,8,9.7400000000,A01A3A,5,1548223953000
1548223980218.7500000000,8,9.1300000000,A01A3A,5,1548223953000
1548223980234.3798828125,8,9.1600000000,A01A3A,5,1548223953000
1548223980250.0000000000,8,9.6700000000,A01A3A,5,1548223953000
1548223980265.6201171875,8,10.3400000000,A01A3A,5,1548223953000
1548223980281.2500000000,8,10.8700000000,A01A3A,5,1548223953000
1548223980296.8798828125,8,11.1200000000,A01A3A,5,1548223953000
1548223980312.5000000000,8,11.2000000000,A01A3A,5,1548223953000
1548223980328.1201171875,8,11.3200000000,A01A3A,5,1548223953000
1548223980343.7500000000,8,11.6800000000,A01A3A,5,1548223953000
1548223980359.3798828125,8,12.2500000000,A01A3A,5,1548223953000
1548223980375.0000000000,8,12.7500000000,A01A3A,5,1548223953000
1548223980390.6201171875,8,12.7600000000,A01A3A,5,1548223953000
1548223980406.2500000000,8,12.0000000000,A01A3A,5,1548223953000
1548223980421.8798828125,8,10.4700000000,A01A3A,5,1548223953000
1548223980437.5000000000,8,8.5100000000,A01A3A,5,1548223953000
1548223980453.1201171875,8,6.6300000000,A01A3A,5,1548223953000
1548223980468.7500000000,8,5.1900000000,A01A3A,5,1548223953000
1548223980484.3798828125,8,4.2300000000,A01A3A,5,1548223953000
1548223980500.0000000000,8,3.4200000000,A01A3A,5,1548223953000
1548223980515.6201171875,8,2.3500000000,A01A3A,5,1548223953000
1548223980531.2500000000,8,0.7300000000,A01A3A,5,1548223953000
1548223980546.8798828125,8,-1.3500000000,A01A3A,5,1548223953000
1548223980562.5000000000,8,-3.5200000000,A01A3A,5,1548223953000
1548223980578.1201171875,8,-5.3900000000,A01A3A,5,1548223953000
1548223980593.7500000000,8,-6.8200000000,A01A3A,5,1548223953000
1548223980609.3798828125,8,-8.0900000000,A01A3A,5,1548223953000
1548223980625.0000000000,8,-9.7500000000,A01A3A,5,1548223953000
1548223980640.6201171875,8,-12.2800000000,A01A3A,5,1548223953000
1548223980656.2500000000,8,-15.7600000000,A01A3A,5,1548223953000
1548223980671.8798828125,8,-19.7700000000,A01A3A,5,1548223953000
1548223980687.5000000000,8,-23.4700000000,A01A3A,5,1548223953000
1548223980703.1201171875,8,-25.9500000000,A01A3A,5,1548223953000
1548223980718.7500000000,8,-26.5600000000,A01A3A,5,1548223953000
1548223980734.3798828125,8,-25.1300000000,A01A3A,5,1548223953000
1548223980750.0000000000,8,-21.9400000000,A01A3A,5,1548223953000
1548223980765.6201171875,8,-17.5600000000,A01A3A,5,1548223953000
1548223980781.2500000000,8,-12.6300000000,A01A3A,5,1548223953000
1548223980796.8798828125,8,-7.6500000000,A01A3A,5,1548223953000
1548223980812.5000000000,8,-2.8800000000,A01A3A,5,1548223953000
1548223980828.1201171875,8,1.6300000000,A01A3A,5,1548223953000
1548223980843.7500000000,8,5.8400000000,A01A3A,5,1548223953000
1548223980859.3798828125,8,9.6500000000,A01A3A,5,1548223953000
1548223980875.0000000000,8,12.7600000000,A01A3A,5,1548223953000
1548223980890.6201171875,8,14.8400000000,A01A3A,5,1548223953000
1548223980906.2500000000,8,15.6600000000,A01A3A,5,1548223953000
1548223980921.8798828125,8,15.3400000000,A01A3A,5,1548223953000
1548223980937.5000000000,8,14.3100000000,A01A3A,5,1548223953000
1548223980953.1201171875,8,13.1900000000,A01A3A,5,1548223953000
1548223980968.7500000000,8,12.5100000000,A01A3A,5,1548223953000
1548223980984.3798828125,8,12.4100000000,A01A3A,5,1548223953000
1548223981000.0000000000,8,12.7000000000,A01A3A,5,1548223953000
1548223981015.6201171875,8,12.9500000000,A01A3A,5,1548223953000
1548223981031.2500000000,8,12.8500000000,A01A3A,5,1548223953000
1548223981046.8798828125,8,12.3700000000,A01A3A,5,1548223953000
1548223981062.5000000000,8,11.7200000000,A01A3A,5,1548223953000
1548223981078.1201171875,8,11.2100000000,A01A3A,5,1548223953000
1548223981093.7500000000,8,10.9800000000,A01A3A,5,1548223953000
1548223981109.3798828125,8,10.9300000000,A01A3A,5,1548223953000
1548223981125.0000000000,8,10.7200000000,A01A3A,5,1548223953000
1548223981140.6201171875,8,10.0500000000,A01A3A,5,1548223953000
1548223981156.2500000000,8,8.8400000000,A01A3A,5,1548223953000
1548223981171.8798828125,8,7.2700000000,A01A3A,5,1548223953000
1548223981187.5000000000,8,5.7400000000,A01A3A,5,1548223953000
1548223981203.1201171875,8,4.6100000000,A01A3A,5,1548223953000
1548223981218.7500000000,8,4.0700000000,A01A3A,5,1548223953000
1548223981234.3798828125,8,3.9000000000,A01A3A,5,1548223953000
1548223981250.0000000000,8,3.6600000000,A01A3A,5,1548223953000
1548223981265.6201171875,8,2.8500000000,A01A3A,5,1548223953000
1548223981281.2500000000,8,1.1900000000,A01A3A,5,1548223953000
1548223981296.8798828125,8,-1.2100000000,A01A3A,5,1548223953000
1548223981312.5000000000,8,-3.9000000000,A01A3A,5,1548223953000
1548223981328.1201171875,8,-6.3000000000,A01A3A,5,1548223953000
1548223981343.7500000000,8,-8.0600000000,A01A3A,5,1548223953000
1548223981359.3798828125,8,-9.2500000000,A01A3A,5,1548223953000
1548223981375.0000000000,8,-10.3900000000,A01A3A,5,1548223953000
1548223981390.6201171875,8,-12.1000000000,A01A3A,5,1548223953000
1548223981406.2500000000,8,-14.8200000000,A01A3A,5,1548223953000
1548223981421.8798828125,8,-18.4800000000,A01A3A,5,1548223953000
1548223981437.5000000000,8,-22.5600000000,A01A3A,5,1548223953000
1548223981453.1201171875,8,-26.2000000000,A01A3A,5,1548223953000
1548223981468.7500000000,8,-28.6300000000,A01A3A,5,1548223953000
1548223981484.3798828125,8,-29.4400000000,A01A3A,5,1548223953000
1548223981500.0000000000,8,-28.6000000000,A01A3A,5,1548223953000
1548223981515.6201171875,8,-26.4200000000,A01A3A,5,1548223953000
1548223981531.2500000000,8,-23.3000000000,A01A3A,5,1548223953000
1548223981546.8798828125,8,-19.5100000000,A01A3A,5,1548223953000
1548223981562.5000000000,8,-15.1100000000,A01A3A,5,1548223953000
1548223981578.1201171875,8,-10.1200000000,A01A3A,5,1548223953000
1548223981593.7500000000,8,-4.6400000000,A01A3A,5,1548223953000
1548223981609.3798828125,8,0.9700000000,A01A3A,5,1548223953000
1548223981625.0000000000,8,6.1200000000,A01A3A,5,1548223953000
1548223981640.6201171875,8,10.1900000000,A01A3A,5,1548223953000
1548223981656.2500000000,8,12.8000000000,A01A3A,5,1548223953000
1548223981671.8798828125,8,14.0200000000,A01A3A,5,1548223953000
1548223981687.5000000000,8,14.3400000000,A01A3A,5,1548223953000
1548223981703.1201171875,8,14.3900000000,A01A3A,5,1548223953000
1548223981718.7500000000,8,14.6100000000,A01A3A,5,1548223953000
1548223981734.3798828125,8,15.0100000000,A01A3A,5,1548223953000
1548223981750.0000000000,8,15.2400000000,A01A3A,5,1548223953000
1548223981765.6201171875,8,14.8700000000,A01A3A,5,1548223953000
1548223981781.2500000000,8,13.7500000000,A01A3A,5,1548223953000
1548223981796.8798828125,8,12.2100000000,A01A3A,5,1548223953000
1548223981812.5000000000,8,10.9300000000,A01A3A,5,1548223953000
1548223981828.1201171875,8,10.6100000000,A01A3A,5,1548223953000
1548223981843.7500000000,8,11.4800000000,A01A3A,5,1548223953000
1548223981859.3798828125,8,13.2500000000,A01A3A,5,1548223953000
1548223981875.0000000000,8,15.1600000000,A01A3A,5,1548223953000
1548223981890.6201171875,8,16.4200000000,A01A3A,5,1548223953000
1548223981906.2500000000,8,16.5900000000,A01A3A,5,1548223953000
1548223981921.8798828125,8,15.7800000000,A01A3A,5,1548223953000
1548223981937.5000000000,8,14.5200000000,A01A3A,5,1548223953000
1548223981953.1201171875,8,13.4000000000,A01A3A,5,1548223953000
1548223981968.7500000000,8,12.7600000000,A01A3A,5,1548223953000
1548223981984.3798828125,8,12.5000000000,A01A3A,5,1548223953000
1548223982000.0000000000,8,12.2100000000,A01A3A,5,1548223953000
1548223982015.6201171875,8,11.4100000000,A01A3A,5,1548223953000
1548223982031.2500000000,8,9.9000000000,A01A3A,5,1548223953000
1548223982046.8798828125,8,7.8200000000,A01A3A,5,1548223953000
1548223982062.5000000000,8,5.6100000000,A01A3A,5,1548223953000
1548223982078.1201171875,8,3.7100000000,A01A3A,5,1548223953000
1548223982093.7500000000,8,2.3300000000,A01A3A,5,1548223953000
1548223982109.3798828125,8,1.3100000000,A01A3A,5,1548223953000
1548223982125.0000000000,8,0.2200000000,A01A3A,5,1548223953000
1548223982140.6201171875,8,-1.3800000000,A01A3A,5,1548223953000
1548223982156.2500000000,8,-3.7700000000,A01A3A,5,1548223953000
1548223982171.8798828125,8,-6.9000000000,A01A3A,5,1548223953000
1548223982187.5000000000,8,-10.4800000000,A01A3A,5,1548223953000
1548223982203.1201171875,8,-14.1100000000,A01A3A,5,1548223953000
1548223982218.7500000000,8,-17.4800000000,A01A3A,5,1548223953000
1548223982234.3798828125,8,-20.3900000000,A01A3A,5,1548223953000
1548223982250.0000000000,8,-22.7200000000,A01A3A,5,1548223953000
1548223982265.6201171875,8,-24.3300000000,A01A3A,5,1548223953000
