timestamp,pid,value,device_serial,device_number,entry_time
1549934973000.0000000000,16,0E-10,A01BBE,5,1549934973000
1549934973015.6201171875,16,0E-10,A01BBE,5,1549934973000
1549934973031.2500000000,16,0E-10,A01BBE,5,1549934973000
1549934973046.8798828125,16,0E-10,A01BBE,5,1549934973000
1549934973062.5000000000,16,0E-10,A01BBE,5,1549934973000
1549934973078.1201171875,16,0E-10,A01BBE,5,1549934973000
1549934973093.7500000000,16,0E-10,A01BBE,5,1549934973000
1549934973109.3798828125,16,0E-10,A01BBE,5,1549934973000
1549934973125.0000000000,16,0E-10,A01BBE,5,1549934973000
1549934973140.6201171875,16,0E-10,A01BBE,5,1549934973000
1549934973156.2500000000,16,0E-10,A01BBE,5,1549934973000
1549934973171.8798828125,16,0.0100000000,A01BBE,5,1549934973000
1549934973187.5000000000,16,0.0100000000,A01BBE,5,1549934973000
1549934973203.1201171875,16,0E-10,A01BBE,5,1549934973000
1549934973218.7500000000,16,-0.0300000000,A01BBE,5,1549934973000
1549934973234.3798828125,16,-0.0500000000,A01BBE,5,1549934973000
1549934973250.0000000000,16,-0.0500000000,A01BBE,5,1549934973000
1549934973265.6201171875,16,0E-10,A01BBE,5,1549934973000
1549934973281.2500000000,16,0.1300000000,A01BBE,5,1549934973000
1549934973296.8798828125,16,0.3600000000,A01BBE,5,1549934973000
1549934973312.5000000000,16,0.6600000000,A01BBE,5,1549934973000
1549934973328.1201171875,16,1.0100000000,A01BBE,5,1549934973000
1549934973343.7500000000,16,1.3700000000,A01BBE,5,1549934973000
1549934973359.3798828125,16,1.7200000000,A01BBE,5,1549934973000
1549934973375.0000000000,16,2.0600000000,A01BBE,5,1549934973000
1549934973390.6201171875,16,2.4000000000,A01BBE,5,1549934973000
1549934973406.2500000000,16,2.7900000000,A01BBE,5,1549934973000
1549934973421.8798828125,16,3.2400000000,A01BBE,5,1549934973000
1549934973437.5000000000,16,3.8000000000,A01BBE,5,1549934973000
1549934973453.1201171875,16,4.4200000000,A01BBE,5,1549934973000
1549934973468.7500000000,16,5.0600000000,A01BBE,5,1549934973000
1549934973484.3798828125,16,5.6600000000,A01BBE,5,1549934973000
1549934973500.0000000000,16,6.2000000000,A01BBE,5,1549934973000
1549934973515.6201171875,16,6.6800000000,A01BBE,5,1549934973000
1549934973531.2500000000,16,7.1500000000,A01BBE,5,1549934973000
1549934973546.8798828125,16,7.6800000000,A01BBE,5,1549934973000
1549934973562.5000000000,16,8.3100000000,A01BBE,5,1549934973000
1549934973578.1201171875,16,9.1400000000,A01BBE,5,1549934973000
1549934973593.7500000000,16,10.0900000000,A01BBE,5,1549934973000
1549934973609.3798828125,16,11.0400000000,A01BBE,5,1549934973000
1549934973625.0000000000,16,11.8800000000,A01BBE,5,1549934973000
1549934973640.6201171875,16,12.5600000000,A01BBE,5,1549934973000
1549934973656.2500000000,16,13.1400000000,A01BBE,5,1549934973000
1549934973671.8798828125,16,13.7600000000,A01BBE,5,1549934973000
1549934973687.5000000000,16,14.6500000000,A01BBE,5,1549934973000
1549934973703.1201171875,16,15.9600000000,A01BBE,5,1549934973000
1549934973718.7500000000,16,17.9100000000,A01BBE,5,1549934973000
1549934973734.3798828125,16,20.3200000000,A01BBE,5,1549934973000
1549934973750.0000000000,16,22.9000000000,A01BBE,5,1549934973000
1549934973765.6201171875,16,25.3800000000,A01BBE,5,1549934973000
1549934973781.2500000000,16,27.5800000000,A01BBE,5,1549934973000
1549934973796.8798828125,16,29.5700000000,A01BBE,5,1549934973000
1549934973812.5000000000,16,31.6800000000,A01BBE,5,1549934973000
1549934973828.1201171875,16,34.3200000000,A01BBE,5,1549934973000
1549934973843.7500000000,16,37.8100000000,A01BBE,5,1549934973000
1549934973859.3798828125,16,42.5400000000,A01BBE,5,1549934973000
1549934973875.0000000000,16,48.1500000000,A01BBE,5,1549934973000
1549934973890.6201171875,16,54.1000000000,A01BBE,5,1549934973000
1549934973906.2500000000,16,59.8300000000,A01BBE,5,1549934973000
1549934973921.8798828125,16,64.9700000000,A01BBE,5,1549934973000
1549934973937.5000000000,16,69.5800000000,A01BBE,5,1549934973000
1549934973953.1201171875,16,74.1400000000,A01BBE,5,1549934973000
1549934973968.7500000000,16,79.3400000000,A01BBE,5,1549934973000
1549934973984.3798828125,16,85.7100000000,A01BBE,5,1549934973000
1549934974000.0000000000,16,93.7600000000,A01BBE,5,1549934973000
1549934974015.6201171875,16,103.0000000000,A01BBE,5,1549934973000
1549934974031.2500000000,16,112.6200000000,A01BBE,5,1549934973000
1549934974046.8798828125,16,121.7300000000,A01BBE,5,1549934973000
1549934974062.5000000000,16,129.7700000000,A01BBE,5,1549934973000
1549934974078.1201171875,16,136.7500000000,A01BBE,5,1549934973000
1549934974093.7500000000,16,143.3000000000,A01BBE,5,1549934973000
1549934974109.3798828125,16,150.7500000000,A01BBE,5,1549934973000
1549934974125.0000000000,16,157.7700000000,A01BBE,5,1549934973000
1549934974140.6201171875,16,166.6400000000,A01BBE,5,1549934973000
1549934974156.2500000000,16,177.9500000000,A01BBE,5,1549934973000
1549934974171.8798828125,16,191.7900000000,A01BBE,5,1549934973000
1549934974187.5000000000,16,206.9700000000,A01BBE,5,1549934973000
1549934974203.1201171875,16,220.5700000000,A01BBE,5,1549934973000
1549934974218.7500000000,16,228.2500000000,A01BBE,5,1549934973000
1549934974234.3798828125,16,225.3600000000,A01BBE,5,1549934973000
1549934974250.0000000000,16,208.5300000000,A01BBE,5,1549934973000
1549934974265.6201171875,16,176.8700000000,A01BBE,5,1549934973000
1549934974281.2500000000,16,132.7600000000,A01BBE,5,1549934973000
1549934974296.8798828125,16,80.0500000000,A01BBE,5,1549934973000
1549934974312.5000000000,16,23.0700000000,A01BBE,5,1549934973000
1549934974328.1201171875,16,-34.9400000000,A01BBE,5,1549934973000
1549934974343.7500000000,16,-92.4400000000,A01BBE,5,1549934973000
1549934974359.3798828125,16,-149.1600000000,A01BBE,5,1549934973000
1549934974375.0000000000,16,-205.2300000000,A01BBE,5,1549934973000
1549934974390.6201171875,16,-260.3700000000,A01BBE,5,1549934973000
1549934974406.2500000000,16,-313.7400000000,A01BBE,5,1549934973000
1549934974421.8798828125,16,-363.8700000000,A01BBE,5,1549934973000
1549934974437.5000000000,16,-409.8300000000,A01BBE,5,1549934973000
1549934974453.1201171875,16,-450.9100000000,A01BBE,5,1549934973000
1549934974468.7500000000,16,-486.5000000000,A01BBE,5,1549934973000
1549934974484.3798828125,16,-515.7400000000,A01BBE,5,1549934973000
1549934974500.0000000000,16,-537.2300000000,A01BBE,5,1549934973000
1549934974515.6201171875,16,-549.2200000000,A01BBE,5,1549934973000
1549934974531.2500000000,16,-549.9600000000,A01BBE,5,1549934973000
1549934974546.8798828125,16,-538.3700000000,A01BBE,5,1549934973000
1549934974562.5000000000,16,-514.2100000000,A01BBE,5,1549934973000
1549934974578.1201171875,16,-478.6700000000,A01BBE,5,1549934973000
1549934974593.7500000000,16,-433.8800000000,A01BBE,5,1549934973000
1549934974609.3798828125,16,-382.4500000000,A01BBE,5,1549934973000
1549934974625.0000000000,16,-327.0200000000,A01BBE,5,1549934973000
1549934974640.6201171875,16,-269.8400000000,A01BBE,5,1549934973000
1549934974656.2500000000,16,-212.6300000000,A01BBE,5,1549934973000
1549934974671.8798828125,16,-156.6600000000,A01BBE,5,1549934973000
1549934974687.5000000000,16,-102.9500000000,A01BBE,5,1549934973000
1549934974703.1201171875,16,-52.3700000000,A01BBE,5,1549934973000
1549934974718.7500000000,16,-5.9000000000,A01BBE,5,1549934973000
1549934974734.3798828125,16,35.5800000000,A01BBE,5,1549934973000
1549934974750.0000000000,16,71.4300000000,A01BBE,5,1549934973000
1549934974765.6201171875,16,101.3500000000,A01BBE,5,1549934973000
1549934974781.2500000000,16,125.5000000000,A01BBE,5,1549934973000
1549934974796.8798828125,16,144.3800000000,A01BBE,5,1549934973000
1549934974812.5000000000,16,158.6900000000,A01BBE,5,1549934973000
1549934974828.1201171875,16,169.1500000000,A01BBE,5,1549934973000
1549934974843.7500000000,16,176.3700000000,A01BBE,5,1549934973000
1549934974859.3798828125,16,180.7500000000,A01BBE,5,1549934973000
1549934974875.0000000000,16,182.5700000000,A01BBE,5,1549934973000
1549934974890.6201171875,16,182.0700000000,A01BBE,5,1549934973000
1549934974906.2500000000,16,179.5100000000,A01BBE,5,1549934973000
1549934974921.8798828125,16,175.2300000000,A01BBE,5,1549934973000
1549934974937.5000000000,16,169.6500000000,A01BBE,5,1549934973000
1549934974953.1201171875,16,163.1800000000,A01BBE,5,1549934973000
1549934974968.7500000000,16,156.1500000000,A01BBE,5,1549934973000
1549934974984.3798828125,16,148.8100000000,A01BBE,5,1549934973000
1549934975000.0000000000,16,141.3000000000,A01BBE,5,1549934973000
1549934975015.6201171875,16,133.6900000000,A01BBE,5,1549934973000
1549934975031.2500000000,16,126.0200000000,A01BBE,5,1549934973000
1549934975046.8798828125,16,118.3300000000,A01BBE,5,1549934973000
1549934975062.5000000000,16,110.6900000000,A01BBE,5,1549934973000
1549934975078.1201171875,16,103.1600000000,A01BBE,5,1549934973000
1549934975093.7500000000,16,95.8000000000,A01BBE,5,1549934973000
1549934975109.3798828125,16,88.6800000000,A01BBE,5,1549934973000
1549934975125.0000000000,16,81.8300000000,A01BBE,5,1549934973000
1549934975140.6201171875,16,75.2500000000,A01BBE,5,1549934973000
1549934975156.2500000000,16,68.9500000000,A01BBE,5,1549934973000
1549934975171.8798828125,16,62.9500000000,A01BBE,5,1549934973000
1549934975187.5000000000,16,57.2500000000,A01BBE,5,1549934973000
1549934975203.1201171875,16,51.8600000000,A01BBE,5,1549934973000
1549934975218.7500000000,16,46.7800000000,A01BBE,5,1549934973000
1549934975234.3798828125,16,42.0300000000,A01BBE,5,1549934973000
1549934975250.0000000000,16,37.5900000000,A01BBE,5,1549934973000
1549934975265.6201171875,16,33.4500000000,A01BBE,5,1549934973000
1549934975281.2500000000,16,29.6100000000,A01BBE,5,1549934973000
1549934975296.8798828125,16,26.0700000000,A01BBE,5,1549934973000
1549934975312.5000000000,16,22.8100000000,A01BBE,5,1549934973000
1549934975328.1201171875,16,19.8300000000,A01BBE,5,1549934973000
1549934975343.7500000000,16,17.1100000000,A01BBE,5,1549934973000
1549934975359.3798828125,16,14.6700000000,A01BBE,5,1549934973000
1549934975375.0000000000,16,12.4800000000,A01BBE,5,1549934973000
1549934975390.6201171875,16,10.5400000000,A01BBE,5,1549934973000
1549934975406.2500000000,16,8.8300000000,A01BBE,5,1549934973000
1549934975421.8798828125,16,7.3500000000,A01BBE,5,1549934973000
1549934975437.5000000000,16,6.0700000000,A01BBE,5,1549934973000
1549934975453.1201171875,16,4.9700000000,A01BBE,5,1549934973000
1549934975468.7500000000,16,4.0500000000,A01BBE,5,1549934973000
1549934975484.3798828125,16,3.2700000000,A01BBE,5,1549934973000
1549934975500.0000000000,16,2.6200000000,A01BBE,5,1549934973000
1549934975515.6201171875,16,2.0900000000,A01BBE,5,1549934973000
1549934975531.2500000000,16,1.6500000000,A01BBE,5,1549934973000
1549934975546.8798828125,16,1.3000000000,A01BBE,5,1549934973000
1549934975562.5000000000,16,1.0100000000,A01BBE,5,1549934973000
1549934975578.1201171875,16,0.7900000000,A01BBE,5,1549934973000
1549934975593.7500000000,16,0.6100000000,A01BBE,5,1549934973000
1549934975609.3798828125,16,0.4700000000,A01BBE,5,1549934973000
1549934975625.0000000000,16,0.3700000000,A01BBE,5,1549934973000
1549934975640.6201171875,16,0.2900000000,A01BBE,5,1549934973000
1549934975656.2500000000,16,0.2300000000,A01BBE,5,1549934973000
1549934975671.8798828125,16,0.1900000000,A01BBE,5,1549934973000
1549934975687.5000000000,16,0.1600000000,A01BBE,5,1549934973000
1549934975703.1201171875,16,0.1400000000,A01BBE,5,1549934973000
1549934975718.7500000000,16,0.1400000000,A01BBE,5,1549934973000
1549934975734.3798828125,16,0.1500000000,A01BBE,5,1549934973000
1549934975750.0000000000,16,0.1600000000,A01BBE,5,1549934973000
1549934975765.6201171875,16,0.1800000000,A01BBE,5,1549934973000
1549934975781.2500000000,16,0.2100000000,A01BBE,5,1549934973000
1549934975796.8798828125,16,0.2500000000,A01BBE,5,1549934973000
1549934975812.5000000000,16,0.2900000000,A01BBE,5,1549934973000
1549934975828.1201171875,16,0.3300000000,A01BBE,5,1549934973000
1549934975843.7500000000,16,0.3800000000,A01BBE,5,1549934973000
1549934975859.3798828125,16,0.4300000000,A01BBE,5,1549934973000
1549934975875.0000000000,16,0.4800000000,A01BBE,5,1549934973000
1549934975890.6201171875,16,0.5300000000,A01BBE,5,1549934973000
1549934975906.2500000000,16,0.5800000000,A01BBE,5,1549934973000
1549934975921.8798828125,16,0.6400000000,A01BBE,5,1549934973000
1549934975937.5000000000,16,0.7000000000,A01BBE,5,1549934973000
1549934975953.1201171875,16,0.7500000000,A01BBE,5,1549934973000
1549934975968.7500000000,16,0.8200000000,A01BBE,5,1549934973000
1549934975984.3798828125,16,0.8800000000,A01BBE,5,1549934973000
1549934976000.0000000000,16,0.9600000000,A01BBE,5,1549934973000
1549934976015.6201171875,16,1.0400000000,A01BBE,5,1549934973000
1549934976031.2500000000,16,1.1200000000,A01BBE,5,1549934973000
1549934976046.8798828125,16,1.2200000000,A01BBE,5,1549934973000
1549934976062.5000000000,16,1.3300000000,A01BBE,5,1549934973000
1549934976078.1201171875,16,1.4500000000,A01BBE,5,1549934973000
1549934976093.7500000000,16,1.5800000000,A01BBE,5,1549934973000
1549934976109.3798828125,16,1.7300000000,A01BBE,5,1549934973000
1549934976125.0000000000,16,1.9000000000,A01BBE,5,1549934973000
1549934976140.6201171875,16,2.0900000000,A01BBE,5,1549934973000
1549934976156.2500000000,16,2.3000000000,A01BBE,5,1549934973000
1549934976171.8798828125,16,2.5300000000,A01BBE,5,1549934973000
1549934976187.5000000000,16,2.7900000000,A01BBE,5,1549934973000
1549934976203.1201171875,16,3.0800000000,A01BBE,5,1549934973000
1549934976218.7500000000,16,3.4000000000,A01BBE,5,1549934973000
1549934976234.3798828125,16,3.7500000000,A01BBE,5,1549934973000
1549934976250.0000000000,16,4.1400000000,A01BBE,5,1549934973000
1549934976265.6201171875,16,4.5600000000,A01BBE,5,1549934973000
1549934976281.2500000000,16,5.0300000000,A01BBE,5,1549934973000
1549934976296.8798828125,16,5.5300000000,A01BBE,5,1549934973000
1549934976312.5000000000,16,6.0700000000,A01BBE,5,1549934973000
1549934976328.1201171875,16,6.6600000000,A01BBE,5,1549934973000
1549934976343.7500000000,16,7.2800000000,A01BBE,5,1549934973000
1549934976359.3798828125,16,7.9500000000,A01BBE,5,1549934973000
1549934976375.0000000000,16,8.6600000000,A01BBE,5,1549934973000
1549934976390.6201171875,16,9.4200000000,A01BBE,5,1549934973000
1549934976406.2500000000,16,10.2400000000,A01BBE,5,1549934973000
1549934976421.8798828125,16,11.1100000000,A01BBE,5,1549934973000
1549934976437.5000000000,16,12.0300000000,A01BBE,5,1549934973000
1549934976453.1201171875,16,12.9800000000,A01BBE,5,1549934973000
1549934976468.7500000000,16,13.9500000000,A01BBE,5,1549934973000
1549934976484.3798828125,16,14.9300000000,A01BBE,5,1549934973000
1549934976500.0000000000,16,15.9400000000,A01BBE,5,1549934973000
1549934976515.6201171875,16,17.0000000000,A01BBE,5,1549934973000
1549934976531.2500000000,16,18.1300000000,A01BBE,5,1549934973000
1549934976546.8798828125,16,19.3400000000,A01BBE,5,1549934973000
1549934976562.5000000000,16,20.6300000000,A01BBE,5,1549934973000
1549934976578.1201171875,16,21.9400000000,A01BBE,5,1549934973000
1549934976593.7500000000,16,23.1700000000,A01BBE,5,1549934973000
1549934976609.3798828125,16,24.2100000000,A01BBE,5,1549934973000
1549934976625.0000000000,16,24.9300000000,A01BBE,5,1549934973000
1549934976640.6201171875,16,25.2000000000,A01BBE,5,1549934973000
1549934976656.2500000000,16,24.9000000000,A01BBE,5,1549934973000
1549934976671.8798828125,16,23.9800000000,A01BBE,5,1549934973000
1549934976687.5000000000,16,22.3500000000,A01BBE,5,1549934973000
1549934976703.1201171875,16,19.9900000000,A01BBE,5,1549934973000
1549934976718.7500000000,16,16.8400000000,A01BBE,5,1549934973000
1549934976734.3798828125,16,12.9000000000,A01BBE,5,1549934973000
1549934976750.0000000000,16,8.2200000000,A01BBE,5,1549934973000
1549934976765.6201171875,16,2.9600000000,A01BBE,5,1549934973000
1549934976781.2500000000,16,-2.6600000000,A01BBE,5,1549934973000
1549934976796.8798828125,16,-8.3400000000,A01BBE,5,1549934973000
1549934976812.5000000000,16,-13.7200000000,A01BBE,5,1549934973000
1549934976828.1201171875,16,-18.5300000000,A01BBE,5,1549934973000
1549934976843.7500000000,16,-22.5500000000,A01BBE,5,1549934973000
1549934976859.3798828125,16,-25.7100000000,A01BBE,5,1549934973000
1549934976875.0000000000,16,-28.0900000000,A01BBE,5,1549934973000
1549934976890.6201171875,16,-29.8400000000,A01BBE,5,1549934973000
1549934976906.2500000000,16,-31.0800000000,A01BBE,5,1549934973000
1549934976921.8798828125,16,-31.8700000000,A01BBE,5,1549934973000
1549934976937.5000000000,16,-32.1400000000,A01BBE,5,1549934973000
1549934976953.1201171875,16,-31.7700000000,A01BBE,5,1549934973000
1549934976968.7500000000,16,-30.6900000000,A01BBE,5,1549934973000
1549934976984.3798828125,16,-28.9500000000,A01BBE,5,1549934973000
1549934977000.0000000000,16,-26.7900000000,A01BBE,5,1549934973000
1549934977015.6201171875,16,-24.6100000000,A01BBE,5,1549934973000
1549934977031.2500000000,16,-22.7900000000,A01BBE,5,1549934973000
1549934977046.8798828125,16,-21.5600000000,A01BBE,5,1549934973000
1549934977062.5000000000,16,-20.8600000000,A01BBE,5,1549934973000
1549934977078.1201171875,16,-20.3700000000,A01BBE,5,1549934973000
1549934977093.7500000000,16,-19.6300000000,A01BBE,5,1549934973000
1549934977109.3798828125,16,-18.2800000000,A01BBE,5,1549934973000
1549934977125.0000000000,16,-16.2500000000,A01BBE,5,1549934973000
1549934977140.6201171875,16,-13.8900000000,A01BBE,5,1549934973000
1549934977156.2500000000,16,-11.8200000000,A01BBE,5,1549934973000
1549934977171.8798828125,16,-10.7200000000,A01BBE,5,1549934973000
1549934977187.5000000000,16,-10.9500000000,A01BBE,5,1549934973000
1549934977203.1201171875,16,-12.4300000000,A01BBE,5,1549934973000
1549934977218.7500000000,16,-14.6400000000,A01BBE,5,1549934973000
1549934977234.3798828125,16,-16.8100000000,A01BBE,5,1549934973000
1549934977250.0000000000,16,-18.4000000000,A01BBE,5,1549934973000
1549934977265.6201171875,16,-19.2800000000,A01BBE,5,1549934973000
1549934977281.2500000000,16,-19.8300000000,A01BBE,5,1549934973000
1549934977296.8798828125,16,-20.7200000000,A01BBE,5,1549934973000
1549934977312.5000000000,16,-22.5800000000,A01BBE,5,1549934973000
1549934977328.1201171875,16,-25.7300000000,A01BBE,5,1549934973000
1549934977343.7500000000,16,-30.2200000000,A01BBE,5,1549934973000
1549934977359.3798828125,16,-35.9200000000,A01BBE,5,1549934973000
1549934977375.0000000000,16,-42.5400000000,A01BBE,5,1549934973000
1549934977390.6201171875,16,-49.3800000000,A01BBE,5,1549934973000
1549934977406.2500000000,16,-55.0500000000,A01BBE,5,1549934973000
1549934977421.8798828125,16,-57.6500000000,A01BBE,5,1549934973000
1549934977437.5000000000,16,-55.4400000000,A01BBE,5,1549934973000
1549934977453.1201171875,16,-47.9000000000,A01BBE,5,1549934973000
1549934977468.7500000000,16,-36.2300000000,A01BBE,5,1549934973000
1549934977484.3798828125,16,-23.2000000000,A01BBE,5,1549934973000
1549934977500.0000000000,16,-11.9200000000,A01BBE,5,1549934973000
1549934977515.6201171875,16,-4.4300000000,A01BBE,5,1549934973000
1549934977531.2500000000,16,-0.8300000000,A01BBE,5,1549934973000
1549934977546.8798828125,16,0.5300000000,A01BBE,5,1549934973000
1549934977562.5000000000,16,1.8600000000,A01BBE,5,1549934973000
1549934977578.1201171875,16,4.5900000000,A01BBE,5,1549934973000
1549934977593.7500000000,16,8.7100000000,A01BBE,5,1549934973000
1549934977609.3798828125,16,13.1200000000,A01BBE,5,1549934973000
1549934977625.0000000000,16,16.5400000000,A01BBE,5,1549934973000
1549934977640.6201171875,16,18.4300000000,A01BBE,5,1549934973000
1549934977656.2500000000,16,19.2500000000,A01BBE,5,1549934973000
1549934977671.8798828125,16,19.8800000000,A01BBE,5,1549934973000
1549934977687.5000000000,16,20.9300000000,A01BBE,5,1549934973000
1549934977703.1201171875,16,22.1400000000,A01BBE,5,1549934973000
1549934977718.7500000000,16,22.5300000000,A01BBE,5,1549934973000
1549934977734.3798828125,16,20.7200000000,A01BBE,5,1549934973000
1549934977750.0000000000,16,15.7700000000,A01BBE,5,1549934973000
1549934977765.6201171875,16,7.6000000000,A01BBE,5,1549934973000
1549934977781.2500000000,16,-2.9500000000,A01BBE,5,1549934973000
1549934977796.8798828125,16,-14.2800000000,A01BBE,5,1549934973000
1549934977812.5000000000,16,-24.4200000000,A01BBE,5,1549934973000
1549934977828.1201171875,16,-31.4600000000,A01BBE,5,1549934973000
1549934977843.7500000000,16,-33.9900000000,A01BBE,5,1549934973000
1549934977859.3798828125,16,-31.4500000000,A01BBE,5,1549934973000
1549934977875.0000000000,16,-24.3100000000,A01BBE,5,1549934973000
1549934977890.6201171875,16,-13.9100000000,A01BBE,5,1549934973000
1549934977906.2500000000,16,-2.0500000000,A01BBE,5,1549934973000
1549934977921.8798828125,16,9.5500000000,A01BBE,5,1549934973000
1549934977937.5000000000,16,19.7300000000,A01BBE,5,1549934973000
1549934977953.1201171875,16,28.0200000000,A01BBE,5,1549934973000
1549934977968.7500000000,16,34.5300000000,A01BBE,5,1549934973000
1549934977984.3798828125,16,39.5800000000,A01BBE,5,1549934973000
1549934978000.0000000000,16,43.4700000000,A01BBE,5,1549934973000
1549934978015.6201171875,16,46.3600000000,A01BBE,5,1549934973000
1549934978031.2500000000,16,48.4500000000,A01BBE,5,1549934973000
1549934978046.8798828125,16,49.9900000000,A01BBE,5,1549934973000
1549934978062.5000000000,16,51.3700000000,A01BBE,5,1549934973000
1549934978078.1201171875,16,52.8500000000,A01BBE,5,1549934973000
1549934978093.7500000000,16,54.4300000000,A01BBE,5,1549934973000
1549934978109.3798828125,16,55.7300000000,A01BBE,5,1549934973000
1549934978125.0000000000,16,56.1600000000,A01BBE,5,1549934973000
1549934978140.6201171875,16,55.2300000000,A01BBE,5,1549934973000
1549934978156.2500000000,16,52.7500000000,A01BBE,5,1549934973000
1549934978171.8798828125,16,48.9900000000,A01BBE,5,1549934973000
1549934978187.5000000000,16,44.6000000000,A01BBE,5,1549934973000
1549934978203.1201171875,16,40.3200000000,A01BBE,5,1549934973000
1549934978218.7500000000,16,36.7600000000,A01BBE,5,1549934973000
1549934978234.3798828125,16,34.2100000000,A01BBE,5,1549934973000
1549934978250.0000000000,16,32.5500000000,A01BBE,5,1549934973000
1549934978265.6201171875,16,31.4000000000,A01BBE,5,1549934973000
1549934978281.2500000000,16,30.2400000000,A01BBE,5,1549934973000
1549934978296.8798828125,16,28.6200000000,A01BBE,5,1549934973000
1549934978312.5000000000,16,26.2400000000,A01BBE,5,1549934973000
1549934978328.1201171875,16,23.0800000000,A01BBE,5,1549934973000
1549934978343.7500000000,16,19.3300000000,A01BBE,5,1549934973000
1549934978359.3798828125,16,15.3100000000,A01BBE,5,1549934973000
1549934978375.0000000000,16,11.3500000000,A01BBE,5,1549934973000
1549934978390.6201171875,16,7.6900000000,A01BBE,5,1549934973000
1549934978406.2500000000,16,4.4800000000,A01BBE,5,1549934973000
1549934978421.8798828125,16,1.6700000000,A01BBE,5,1549934973000
1549934978437.5000000000,16,-0.8800000000,A01BBE,5,1549934973000
1549934978453.1201171875,16,-3.4100000000,A01BBE,5,1549934973000
1549934978468.7500000000,16,-6.1900000000,A01BBE,5,1549934973000
1549934978484.3798828125,16,-9.4400000000,A01BBE,5,1549934973000
1549934978500.0000000000,16,-13.2300000000,A01BBE,5,1549934973000
1549934978515.6201171875,16,-17.5200000000,A01BBE,5,1549934973000
1549934978531.2500000000,16,-22.0500000000,A01BBE,5,1549934973000
1549934978546.8798828125,16,-26.5800000000,A01BBE,5,1549934973000
1549934978562.5000000000,16,-30.8800000000,A01BBE,5,1549934973000
1549934978578.1201171875,16,-34.8600000000,A01BBE,5,1549934973000
1549934978593.7500000000,16,-38.6300000000,A01BBE,5,1549934973000
1549934978609.3798828125,16,-42.5000000000,A01BBE,5,1549934973000
1549934978625.0000000000,16,-46.9100000000,A01BBE,5,1549934973000
1549934978640.6201171875,16,-52.2800000000,A01BBE,5,1549934973000
1549934978656.2500000000,16,-58.8200000000,A01BBE,5,1549934973000
1549934978671.8798828125,16,-66.3700000000,A01BBE,5,1549934973000
1549934978687.5000000000,16,-74.1600000000,A01BBE,5,1549934973000
1549934978703.1201171875,16,-80.9100000000,A01BBE,5,1549934973000
1549934978718.7500000000,16,-85.0900000000,A01BBE,5,1549934973000
1549934978734.3798828125,16,-85.3400000000,A01BBE,5,1549934973000
1549934978750.0000000000,16,-80.9900000000,A01BBE,5,1549934973000
1549934978765.6201171875,16,-72.3200000000,A01BBE,5,1549934973000
1549934978781.2500000000,16,-60.5600000000,A01BBE,5,1549934973000
1549934978796.8798828125,16,-47.4100000000,A01BBE,5,1549934973000
1549934978812.5000000000,16,-34.5600000000,A01BBE,5,1549934973000
1549934978828.1201171875,16,-23.0900000000,A01BBE,5,1549934973000
1549934978843.7500000000,16,-13.2900000000,A01BBE,5,1549934973000
1549934978859.3798828125,16,-4.8900000000,A01BBE,5,1549934973000
1549934978875.0000000000,16,2.6100000000,A01BBE,5,1549934973000
1549934978890.6201171875,16,9.6100000000,A01BBE,5,1549934973000
1549934978906.2500000000,16,16.2900000000,A01BBE,5,1549934973000
1549934978921.8798828125,16,22.6900000000,A01BBE,5,1549934973000
1549934978937.5000000000,16,28.8600000000,A01BBE,5,1549934973000
1549934978953.1201171875,16,34.8600000000,A01BBE,5,1549934973000
1549934978968.7500000000,16,40.6900000000,A01BBE,5,1549934973000
1549934978984.3798828125,16,46.1600000000,A01BBE,5,1549934973000
1549934979000.0000000000,16,50.7900000000,A01BBE,5,1549934973000
1549934979015.6201171875,16,54.0400000000,A01BBE,5,1549934973000
1549934979031.2500000000,16,55.5800000000,A01BBE,5,1549934973000
1549934979046.8798828125,16,55.5300000000,A01BBE,5,1549934973000
1549934979062.5000000000,16,54.4200000000,A01BBE,5,1549934973000
1549934979078.1201171875,16,53.0000000000,A01BBE,5,1549934973000
1549934979093.7500000000,16,51.8300000000,A01BBE,5,1549934973000
1549934979109.3798828125,16,51.0600000000,A01BBE,5,1549934973000
1549934979125.0000000000,16,50.4100000000,A01BBE,5,1549934973000
1549934979140.6201171875,16,49.3900000000,A01BBE,5,1549934973000
1549934979156.2500000000,16,47.6000000000,A01BBE,5,1549934973000
1549934979171.8798828125,16,44.9600000000,A01BBE,5,1549934973000
1549934979187.5000000000,16,41.7100000000,A01BBE,5,1549934973000
1549934979203.1201171875,16,38.2100000000,A01BBE,5,1549934973000
1549934979218.7500000000,16,34.8500000000,A01BBE,5,1549934973000
1549934979234.3798828125,16,31.7700000000,A01BBE,5,1549934973000
1549934979250.0000000000,16,28.9300000000,A01BBE,5,1549934973000
1549934979265.6201171875,16,26.1300000000,A01BBE,5,1549934973000
1549934979281.2500000000,16,23.1700000000,A01BBE,5,1549934973000
1549934979296.8798828125,16,19.9400000000,A01BBE,5,1549934973000
1549934979312.5000000000,16,16.5300000000,A01BBE,5,1549934973000
1549934979328.1201171875,16,13.1500000000,A01BBE,5,1549934973000
1549934979343.7500000000,16,10.0300000000,A01BBE,5,1549934973000
1549934979359.3798828125,16,7.3500000000,A01BBE,5,1549934973000
1549934979375.0000000000,16,5.0500000000,A01BBE,5,1549934973000
1549934979390.6201171875,16,2.8900000000,A01BBE,5,1549934973000
1549934979406.2500000000,16,0.4900000000,A01BBE,5,1549934973000
1549934979421.8798828125,16,-2.4700000000,A01BBE,5,1549934973000
1549934979437.5000000000,16,-6.2000000000,A01BBE,5,1549934973000
1549934979453.1201171875,16,-10.6100000000,A01BBE,5,1549934973000
1549934979468.7500000000,16,-15.4800000000,A01BBE,5,1549934973000
1549934979484.3798828125,16,-20.5100000000,A01BBE,5,1549934973000
1549934979500.0000000000,16,-25.5000000000,A01BBE,5,1549934973000
1549934979515.6201171875,16,-30.4800000000,A01BBE,5,1549934973000
1549934979531.2500000000,16,-35.6300000000,A01BBE,5,1549934973000
1549934979546.8798828125,16,-41.2500000000,A01BBE,5,1549934973000
1549934979562.5000000000,16,-47.5600000000,A01BBE,5,1549934973000
1549934979578.1201171875,16,-54.6500000000,A01BBE,5,1549934973000
1549934979593.7500000000,16,-62.3900000000,A01BBE,5,1549934973000
1549934979609.3798828125,16,-70.3300000000,A01BBE,5,1549934973000
1549934979625.0000000000,16,-77.7500000000,A01BBE,5,1549934973000
1549934979640.6201171875,16,-83.6000000000,A01BBE,5,1549934973000
1549934979656.2500000000,16,-86.6900000000,A01BBE,5,1549934973000
1549934979671.8798828125,16,-85.9500000000,A01BBE,5,1549934973000
1549934979687.5000000000,16,-80.8100000000,A01BBE,5,1549934973000
1549934979703.1201171875,16,-71.5100000000,A01BBE,5,1549934973000
1549934979718.7500000000,16,-59.1900000000,A01BBE,5,1549934973000
1549934979734.3798828125,16,-45.6000000000,A01BBE,5,1549934973000
1549934979750.0000000000,16,-32.5200000000,A01BBE,5,1549934973000
1549934979765.6201171875,16,-21.2600000000,A01BBE,5,1549934973000
1549934979781.2500000000,16,-12.2900000000,A01BBE,5,1549934973000
1549934979796.8798828125,16,-5.2700000000,A01BBE,5,1549934973000
1549934979812.5000000000,16,0.5900000000,A01BBE,5,1549934973000
1549934979828.1201171875,16,6.1300000000,A01BBE,5,1549934973000
1549934979843.7500000000,16,11.9000000000,A01BBE,5,1549934973000
1549934979859.3798828125,16,18.0100000000,A01BBE,5,1549934973000
1549934979875.0000000000,16,24.2200000000,A01BBE,5,1549934973000
1549934979890.6201171875,16,30.1400000000,A01BBE,5,1549934973000
1549934979906.2500000000,16,35.3200000000,A01BBE,5,1549934973000
1549934979921.8798828125,16,39.4700000000,A01BBE,5,1549934973000
1549934979937.5000000000,16,42.4100000000,A01BBE,5,1549934973000
1549934979953.1201171875,16,44.1600000000,A01BBE,5,1549934973000
1549934979968.7500000000,16,44.8900000000,A01BBE,5,1549934973000
1549934979984.3798828125,16,44.8500000000,A01BBE,5,1549934973000
1549934980000.0000000000,16,44.3400000000,A01BBE,5,1549934973000
1549934980015.6201171875,16,43.5800000000,A01BBE,5,1549934973000
1549934980031.2500000000,16,42.7200000000,A01BBE,5,1549934973000
1549934980046.8798828125,16,41.8300000000,A01BBE,5,1549934973000
1549934980062.5000000000,16,40.9100000000,A01BBE,5,1549934973000
1549934980078.1201171875,16,40.0000000000,A01BBE,5,1549934973000
1549934980093.7500000000,16,39.0400000000,A01BBE,5,1549934973000
1549934980109.3798828125,16,37.9900000000,A01BBE,5,1549934973000
1549934980125.0000000000,16,36.7700000000,A01BBE,5,1549934973000
1549934980140.6201171875,16,35.2500000000,A01BBE,5,1549934973000
1549934980156.2500000000,16,33.3700000000,A01BBE,5,1549934973000
1549934980171.8798828125,16,31.0800000000,A01BBE,5,1549934973000
1549934980187.5000000000,16,28.4300000000,A01BBE,5,1549934973000
1549934980203.1201171875,16,25.5500000000,A01BBE,5,1549934973000
1549934980218.7500000000,16,22.5900000000,A01BBE,5,1549934973000
1549934980234.3798828125,16,19.6600000000,A01BBE,5,1549934973000
1549934980250.0000000000,16,16.8100000000,A01BBE,5,1549934973000
1549934980265.6201171875,16,13.9800000000,A01BBE,5,1549934973000
1549934980281.2500000000,16,11.0800000000,A01BBE,5,1549934973000
1549934980296.8798828125,16,7.9800000000,A01BBE,5,1549934973000
1549934980312.5000000000,16,4.6100000000,A01BBE,5,1549934973000
1549934980328.1201171875,16,0.9400000000,A01BBE,5,1549934973000
1549934980343.7500000000,16,-2.9800000000,A01BBE,5,1549934973000
1549934980359.3798828125,16,-7.0600000000,A01BBE,5,1549934973000
1549934980375.0000000000,16,-11.2100000000,A01BBE,5,1549934973000
1549934980390.6201171875,16,-15.3000000000,A01BBE,5,1549934973000
1549934980406.2500000000,16,-19.2700000000,A01BBE,5,1549934973000
1549934980421.8798828125,16,-23.0100000000,A01BBE,5,1549934973000
1549934980437.5000000000,16,-26.5300000000,A01BBE,5,1549934973000
1549934980453.1201171875,16,-29.8600000000,A01BBE,5,1549934973000
1549934980468.7500000000,16,-33.1900000000,A01BBE,5,1549934973000
1549934980484.3798828125,16,-36.8500000000,A01BBE,5,1549934973000
1549934980500.0000000000,16,-41.3000000000,A01BBE,5,1549934973000
1549934980515.6201171875,16,-46.9400000000,A01BBE,5,1549934973000
1549934980531.2500000000,16,-53.8900000000,A01BBE,5,1549934973000
1549934980546.8798828125,16,-61.6800000000,A01BBE,5,1549934973000
1549934980562.5000000000,16,-69.2000000000,A01BBE,5,1549934973000
1549934980578.1201171875,16,-74.8100000000,A01BBE,5,1549934973000
1549934980593.7500000000,16,-76.8700000000,A01BBE,5,1549934973000
1549934980609.3798828125,16,-74.3200000000,A01BBE,5,1549934973000
1549934980625.0000000000,16,-67.1300000000,A01BBE,5,1549934973000
1549934980640.6201171875,16,-56.3900000000,A01BBE,5,1549934973000
1549934980656.2500000000,16,-43.8700000000,A01BBE,5,1549934973000
1549934980671.8798828125,16,-31.4700000000,A01BBE,5,1549934973000
1549934980687.5000000000,16,-20.5200000000,A01BBE,5,1549934973000
1549934980703.1201171875,16,-11.5600000000,A01BBE,5,1549934973000
1549934980718.7500000000,16,-4.4100000000,A01BBE,5,1549934973000
1549934980734.3798828125,16,1.4800000000,A01BBE,5,1549934973000
1549934980750.0000000000,16,6.6800000000,A01BBE,5,1549934973000
1549934980765.6201171875,16,11.5900000000,A01BBE,5,1549934973000
1549934980781.2500000000,16,16.3600000000,A01BBE,5,1549934973000
1549934980796.8798828125,16,21.0500000000,A01BBE,5,1549934973000
1549934980812.5000000000,16,25.5600000000,A01BBE,5,1549934973000
1549934980828.1201171875,16,29.7500000000,A01BBE,5,1549934973000
1549934980843.7500000000,16,33.3900000000,A01BBE,5,1549934973000
1549934980859.3798828125,16,36.2000000000,A01BBE,5,1549934973000
1549934980875.0000000000,16,37.9800000000,A01BBE,5,1549934973000
1549934980890.6201171875,16,38.6900000000,A01BBE,5,1549934973000
1549934980906.2500000000,16,38.4700000000,A01BBE,5,1549934973000
1549934980921.8798828125,16,37.6100000000,A01BBE,5,1549934973000
1549934980937.5000000000,16,36.4600000000,A01BBE,5,1549934973000
1549934980953.1201171875,16,35.2800000000,A01BBE,5,1549934973000
1549934980968.7500000000,16,34.3200000000,A01BBE,5,1549934973000
1549934980984.3798828125,16,33.7000000000,A01BBE,5,1549934973000
1549934981000.0000000000,16,33.4100000000,A01BBE,5,1549934973000
1549934981015.6201171875,16,33.3100000000,A01BBE,5,1549934973000
1549934981031.2500000000,16,33.1200000000,A01BBE,5,1549934973000
1549934981046.8798828125,16,32.4300000000,A01BBE,5,1549934973000
1549934981062.5000000000,16,30.8800000000,A01BBE,5,1549934973000
1549934981078.1201171875,16,28.3800000000,A01BBE,5,1549934973000
1549934981093.7500000000,16,25.0600000000,A01BBE,5,1549934973000
1549934981109.3798828125,16,21.3700000000,A01BBE,5,1549934973000
1549934981125.0000000000,16,17.8000000000,A01BBE,5,1549934973000
1549934981140.6201171875,16,14.7200000000,A01BBE,5,1549934973000
1549934981156.2500000000,16,12.2500000000,A01BBE,5,1549934973000
1549934981171.8798828125,16,10.1900000000,A01BBE,5,1549934973000
1549934981187.5000000000,16,8.1100000000,A01BBE,5,1549934973000
1549934981203.1201171875,16,5.6000000000,A01BBE,5,1549934973000
1549934981218.7500000000,16,2.3600000000,A01BBE,5,1549934973000
1549934981234.3798828125,16,-1.6800000000,A01BBE,5,1549934973000
1549934981250.0000000000,16,-6.3300000000,A01BBE,5,1549934973000
1549934981265.6201171875,16,-11.2300000000,A01BBE,5,1549934973000
1549934981281.2500000000,16,-15.9800000000,A01BBE,5,1549934973000
1549934981296.8798828125,16,-20.2700000000,A01BBE,5,1549934973000
1549934981312.5000000000,16,-24.0400000000,A01BBE,5,1549934973000
1549934981328.1201171875,16,-27.5400000000,A01BBE,5,1549934973000
1549934981343.7500000000,16,-31.2700000000,A01BBE,5,1549934973000
1549934981359.3798828125,16,-35.8400000000,A01BBE,5,1549934973000
1549934981375.0000000000,16,-41.6900000000,A01BBE,5,1549934973000
1549934981390.6201171875,16,-48.8900000000,A01BBE,5,1549934973000
1549934981406.2500000000,16,-56.9300000000,A01BBE,5,1549934973000
1549934981421.8798828125,16,-64.7500000000,A01BBE,5,1549934973000
1549934981437.5000000000,16,-70.8500000000,A01BBE,5,1549934973000
1549934981453.1201171875,16,-73.7100000000,A01BBE,5,1549934973000
1549934981468.7500000000,16,-72.1800000000,A01BBE,5,1549934973000
1549934981484.3798828125,16,-65.8700000000,A01BBE,5,1549934973000
1549934981500.0000000000,16,-55.3600000000,A01BBE,5,1549934973000
1549934981515.6201171875,16,-42.0700000000,A01BBE,5,1549934973000
1549934981531.2500000000,16,-27.8500000000,A01BBE,5,1549934973000
1549934981546.8798828125,16,-14.4900000000,A01BBE,5,1549934973000
1549934981562.5000000000,16,-3.2200000000,A01BBE,5,1549934973000
1549934981578.1201171875,16,5.5600000000,A01BBE,5,1549934973000
1549934981593.7500000000,16,12.1200000000,A01BBE,5,1549934973000
1549934981609.3798828125,16,17.1300000000,A01BBE,5,1549934973000
1549934981625.0000000000,16,21.3000000000,A01BBE,5,1549934973000
1549934981640.6201171875,16,25.1100000000,A01BBE,5,1549934973000
1549934981656.2500000000,16,28.7500000000,A01BBE,5,1549934973000
1549934981671.8798828125,16,32.1600000000,A01BBE,5,1549934973000
1549934981687.5000000000,16,35.2400000000,A01BBE,5,1549934973000
1549934981703.1201171875,16,37.8200000000,A01BBE,5,1549934973000
1549934981718.7500000000,16,39.8100000000,A01BBE,5,1549934973000
1549934981734.3798828125,16,41.0700000000,A01BBE,5,1549934973000
1549934981750.0000000000,16,41.5100000000,A01BBE,5,1549934973000
1549934981765.6201171875,16,41.0900000000,A01BBE,5,1549934973000
1549934981781.2500000000,16,39.8700000000,A01BBE,5,1549934973000
1549934981796.8798828125,16,38.1300000000,A01BBE,5,1549934973000
1549934981812.5000000000,16,36.2200000000,A01BBE,5,1549934973000
1549934981828.1201171875,16,34.5300000000,A01BBE,5,1549934973000
1549934981843.7500000000,16,33.3100000000,A01BBE,5,1549934973000
1549934981859.3798828125,16,32.5200000000,A01BBE,5,1549934973000
1549934981875.0000000000,16,31.9100000000,A01BBE,5,1549934973000
1549934981890.6201171875,16,31.0800000000,A01BBE,5,1549934973000
1549934981906.2500000000,16,29.6800000000,A01BBE,5,1549934973000
1549934981921.8798828125,16,27.5400000000,A01BBE,5,1549934973000
1549934981937.5000000000,16,24.7700000000,A01BBE,5,1549934973000
1549934981953.1201171875,16,21.6400000000,A01BBE,5,1549934973000
1549934981968.7500000000,16,18.4500000000,A01BBE,5,1549934973000
1549934981984.3798828125,16,15.3900000000,A01BBE,5,1549934973000
1549934982000.0000000000,16,12.4100000000,A01BBE,5,1549934973000
1549934982015.6201171875,16,9.3000000000,A01BBE,5,1549934973000
1549934982031.2500000000,16,5.7400000000,A01BBE,5,1549934973000
1549934982046.8798828125,16,1.5600000000,A01BBE,5,1549934973000
1549934982062.5000000000,16,-3.2100000000,A01BBE,5,1549934973000
1549934982078.1201171875,16,-8.3700000000,A01BBE,5,1549934973000
1549934982093.7500000000,16,-13.5500000000,A01BBE,5,1549934973000
1549934982109.3798828125,16,-18.4800000000,A01BBE,5,1549934973000
1549934982125.0000000000,16,-23.0800000000,A01BBE,5,1549934973000
1549934982140.6201171875,16,-27.5700000000,A01BBE,5,1549934973000
1549934982156.2500000000,16,-32.4000000000,A01BBE,5,1549934973000
1549934982171.8798828125,16,-38.0700000000,A01BBE,5,1549934973000
1549934982187.5000000000,16,-44.8800000000,A01BBE,5,1549934973000
1549934982203.1201171875,16,-52.7500000000,A01BBE,5,1549934973000
1549934982218.7500000000,16,-61.0400000000,A01BBE,5,1549934973000
1549934982234.3798828125,16,-68.6200000000,A01BBE,5,1549934973000
1549934982250.0000000000,16,-74.0900000000,A01BBE,5,1549934973000
1549934982265.6201171875,16,-76.1600000000,A01BBE,5,1549934973000
1549934982281.2500000000,16,-74.0100000000,A01BBE,5,1549934973000
1549934982296.8798828125,16,-67.6400000000,A01BBE,5,1549934973000
1549934982312.5000000000,16,-57.9200000000,A01BBE,5,1549934973000
1549934982328.1201171875,16,-46.2900000000,A01BBE,5,1549934973000
1549934982343.7500000000,16,-34.3800000000,A01BBE,5,1549934973000
1549934982359.3798828125,16,-23.4900000000,A01BBE,5,1549934973000
1549934982375.0000000000,16,-14.3000000000,A01BBE,5,1549934973000
1549934982390.6201171875,16,-6.8400000000,A01BBE,5,1549934973000
1549934982406.2500000000,16,-0.6400000000,A01BBE,5,1549934973000
1549934982421.8798828125,16,4.8800000000,A01BBE,5,1549934973000
1549934982437.5000000000,16,10.2000000000,A01BBE,5,1549934973000
1549934982453.1201171875,16,15.5700000000,A01BBE,5,1549934973000
1549934982468.7500000000,16,21.0100000000,A01BBE,5,1549934973000
1549934982484.3798828125,16,26.3800000000,A01BBE,5,1549934973000
1549934982500.0000000000,16,31.4400000000,A01BBE,5,1549934973000
1549934982515.6201171875,16,35.9200000000,A01BBE,5,1549934973000
1549934982531.2500000000,16,39.5100000000,A01BBE,5,1549934973000
1549934982546.8798828125,16,42.0200000000,A01BBE,5,1549934973000
1549934982562.5000000000,16,43.3600000000,A01BBE,5,1549934973000
1549934982578.1201171875,16,43.6800000000,A01BBE,5,1549934973000
1549934982593.7500000000,16,43.2900000000,A01BBE,5,1549934973000
1549934982609.3798828125,16,42.5800000000,A01BBE,5,1549934973000
1549934982625.0000000000,16,41.9100000000,A01BBE,5,1549934973000
1549934982640.6201171875,16,41.4500000000,A01BBE,5,1549934973000
1549934982656.2500000000,16,41.2600000000,A01BBE,5,1549934973000
1549934982671.8798828125,16,41.2000000000,A01BBE,5,1549934973000
1549934982687.5000000000,16,41.0600000000,A01BBE,5,1549934973000
1549934982703.1201171875,16,40.6000000000,A01BBE,5,1549934973000
1549934982718.7500000000,16,39.5700000000,A01BBE,5,1549934973000
1549934982734.3798828125,16,37.8000000000,A01BBE,5,1549934973000
1549934982750.0000000000,16,35.1700000000,A01BBE,5,1549934973000
1549934982765.6201171875,16,31.7500000000,A01BBE,5,1549934973000
1549934982781.2500000000,16,27.7200000000,A01BBE,5,1549934973000
1549934982796.8798828125,16,23.4200000000,A01BBE,5,1549934973000
1549934982812.5000000000,16,19.2400000000,A01BBE,5,1549934973000
1549934982828.1201171875,16,15.4900000000,A01BBE,5,1549934973000
1549934982843.7500000000,16,12.2800000000,A01BBE,5,1549934973000
1549934982859.3798828125,16,9.4500000000,A01BBE,5,1549934973000
1549934982875.0000000000,16,6.6300000000,A01BBE,5,1549934973000
1549934982890.6201171875,16,3.3800000000,A01BBE,5,1549934973000
1549934982906.2500000000,16,-0.6100000000,A01BBE,5,1549934973000
1549934982921.8798828125,16,-5.3500000000,A01BBE,5,1549934973000
1549934982937.5000000000,16,-10.5500000000,A01BBE,5,1549934973000
1549934982953.1201171875,16,-15.7100000000,A01BBE,5,1549934973000
1549934982968.7500000000,16,-20.4000000000,A01BBE,5,1549934973000
1549934982984.3798828125,16,-24.5000000000,A01BBE,5,1549934973000
1549934983000.0000000000,16,-28.3200000000,A01BBE,5,1549934973000
1549934983015.6201171875,16,-32.4900000000,A01BBE,5,1549934973000
1549934983031.2500000000,16,-37.7700000000,A01BBE,5,1549934973000
1549934983046.8798828125,16,-44.6600000000,A01BBE,5,1549934973000
1549934983062.5000000000,16,-53.0700000000,A01BBE,5,1549934973000
1549934983078.1201171875,16,-62.3100000000,A01BBE,5,1549934973000
1549934983093.7500000000,16,-71.0900000000,A01BBE,5,1549934973000
1549934983109.3798828125,16,-77.9200000000,A01BBE,5,1549934973000
1549934983125.0000000000,16,-81.4500000000,A01BBE,5,1549934973000
1549934983140.6201171875,16,-80.8800000000,A01BBE,5,1549934973000
1549934983156.2500000000,16,-76.1300000000,A01BBE,5,1549934973000
1549934983171.8798828125,16,-67.8400000000,A01BBE,5,1549934973000
1549934983187.5000000000,16,-57.1600000000,A01BBE,5,1549934973000
1549934983203.1201171875,16,-45.4100000000,A01BBE,5,1549934973000
1549934983218.7500000000,16,-33.7600000000,A01BBE,5,1549934973000
1549934983234.3798828125,16,-23.0200000000,A01BBE,5,1549934973000
1549934983250.0000000000,16,-13.5600000000,A01BBE,5,1549934973000
1549934983265.6201171875,16,-5.3900000000,A01BBE,5,1549934973000
1549934983281.2500000000,16,1.7200000000,A01BBE,5,1549934973000
1549934983296.8798828125,16,8.1900000000,A01BBE,5,1549934973000
1549934983312.5000000000,16,14.4600000000,A01BBE,5,1549934973000
1549934983328.1201171875,16,20.8500000000,A01BBE,5,1549934973000
1549934983343.7500000000,16,27.5100000000,A01BBE,5,1549934973000
1549934983359.3798828125,16,34.2700000000,A01BBE,5,1549934973000
1549934983375.0000000000,16,40.6800000000,A01BBE,5,1549934973000
1549934983390.6201171875,16,46.2000000000,A01BBE,5,1549934973000
1549934983406.2500000000,16,50.3500000000,A01BBE,5,1549934973000
1549934983421.8798828125,16,52.9500000000,A01BBE,5,1549934973000
1549934983437.5000000000,16,54.1500000000,A01BBE,5,1549934973000
1549934983453.1201171875,16,54.4500000000,A01BBE,5,1549934973000
1549934983468.7500000000,16,54.4100000000,A01BBE,5,1549934973000
1549934983484.3798828125,16,54.5700000000,A01BBE,5,1549934973000
1549934983500.0000000000,16,55.2000000000,A01BBE,5,1549934973000
1549934983515.6201171875,16,56.3400000000,A01BBE,5,1549934973000
1549934983531.2500000000,16,57.7600000000,A01BBE,5,1549934973000
1549934983546.8798828125,16,59.2000000000,A01BBE,5,1549934973000
1549934983562.5000000000,16,60.4300000000,A01BBE,5,1549934973000
1549934983578.1201171875,16,61.3200000000,A01BBE,5,1549934973000
1549934983593.7500000000,16,61.8100000000,A01BBE,5,1549934973000
1549934983609.3798828125,16,61.8000000000,A01BBE,5,1549934973000
1549934983625.0000000000,16,61.1200000000,A01BBE,5,1549934973000
1549934983640.6201171875,16,59.5600000000,A01BBE,5,1549934973000
1549934983656.2500000000,16,57.0500000000,A01BBE,5,1549934973000
1549934983671.8798828125,16,53.8000000000,A01BBE,5,1549934973000
1549934983687.5000000000,16,50.3300000000,A01BBE,5,1549934973000
1549934983703.1201171875,16,47.2300000000,A01BBE,5,1549934973000
1549934983718.7500000000,16,44.8600000000,A01BBE,5,1549934973000
1549934983734.3798828125,16,43.1500000000,A01BBE,5,1549934973000
1549934983750.0000000000,16,41.5400000000,A01BBE,5,1549934973000
1549934983765.6201171875,16,39.3800000000,A01BBE,5,1549934973000
1549934983781.2500000000,16,36.1900000000,A01BBE,5,1549934973000
1549934983796.8798828125,16,31.9400000000,A01BBE,5,1549934973000
1549934983812.5000000000,16,27.0200000000,A01BBE,5,1549934973000
1549934983828.1201171875,16,21.9500000000,A01BBE,5,1549934973000
1549934983843.7500000000,16,17.0800000000,A01BBE,5,1549934973000
1549934983859.3798828125,16,12.4300000000,A01BBE,5,1549934973000
1549934983875.0000000000,16,7.7800000000,A01BBE,5,1549934973000
1549934983890.6201171875,16,2.9300000000,A01BBE,5,1549934973000
1549934983906.2500000000,16,-2.1400000000,A01BBE,5,1549934973000
1549934983921.8798828125,16,-7.2700000000,A01BBE,5,1549934973000
1549934983937.5000000000,16,-12.2500000000,A01BBE,5,1549934973000
1549934983953.1201171875,16,-17.0600000000,A01BBE,5,1549934973000
1549934983968.7500000000,16,-22.0400000000,A01BBE,5,1549934973000
1549934983984.3798828125,16,-27.8100000000,A01BBE,5,1549934973000
1549934984000.0000000000,16,-35.0000000000,A01BBE,5,1549934973000
1549934984015.6201171875,16,-43.8800000000,A01BBE,5,1549934973000
1549934984031.2500000000,16,-54.0200000000,A01BBE,5,1549934973000
1549934984046.8798828125,16,-64.2700000000,A01BBE,5,1549934973000
1549934984062.5000000000,16,-72.9700000000,A01BBE,5,1549934973000
1549934984078.1201171875,16,-78.5200000000,A01BBE,5,1549934973000
1549934984093.7500000000,16,-79.9600000000,A01BBE,5,1549934973000
1549934984109.3798828125,16,-77.2700000000,A01BBE,5,1549934973000
1549934984125.0000000000,16,-71.3400000000,A01BBE,5,1549934973000
1549934984140.6201171875,16,-63.5900000000,A01BBE,5,1549934973000
1549934984156.2500000000,16,-55.3500000000,A01BBE,5,1549934973000
1549934984171.8798828125,16,-47.5600000000,A01BBE,5,1549934973000
1549934984187.5000000000,16,-40.5700000000,A01BBE,5,1549934973000
1549934984203.1201171875,16,-34.3700000000,A01BBE,5,1549934973000
1549934984218.7500000000,16,-28.8400000000,A01BBE,5,1549934973000
1549934984234.3798828125,16,-23.9700000000,A01BBE,5,1549934973000
1549934984250.0000000000,16,-19.8300000000,A01BBE,5,1549934973000
1549934984265.6201171875,16,-16.4800000000,A01BBE,5,1549934973000
1549934984281.2500000000,16,-13.8000000000,A01BBE,5,1549934973000
1549934984296.8798828125,16,-11.5400000000,A01BBE,5,1549934973000
1549934984312.5000000000,16,-9.4000000000,A01BBE,5,1549934973000
1549934984328.1201171875,16,-7.1800000000,A01BBE,5,1549934973000
1549934984343.7500000000,16,-4.8600000000,A01BBE,5,1549934973000
1549934984359.3798828125,16,-2.6200000000,A01BBE,5,1549934973000
1549934984375.0000000000,16,-0.6600000000,A01BBE,5,1549934973000
1549934984390.6201171875,16,0.8700000000,A01BBE,5,1549934973000
1549934984406.2500000000,16,1.9600000000,A01BBE,5,1549934973000
1549934984421.8798828125,16,2.7800000000,A01BBE,5,1549934973000
1549934984437.5000000000,16,3.5200000000,A01BBE,5,1549934973000
1549934984453.1201171875,16,4.3500000000,A01BBE,5,1549934973000
1549934984468.7500000000,16,5.2600000000,A01BBE,5,1549934973000
1549934984484.3798828125,16,6.0600000000,A01BBE,5,1549934973000
1549934984500.0000000000,16,6.4300000000,A01BBE,5,1549934973000
1549934984515.6201171875,16,6.1000000000,A01BBE,5,1549934973000
1549934984531.2500000000,16,5.0200000000,A01BBE,5,1549934973000
1549934984546.8798828125,16,3.4500000000,A01BBE,5,1549934973000
1549934984562.5000000000,16,1.9300000000,A01BBE,5,1549934973000
1549934984578.1201171875,16,1.0900000000,A01BBE,5,1549934973000
1549934984593.7500000000,16,1.3800000000,A01BBE,5,1549934973000
1549934984609.3798828125,16,2.9200000000,A01BBE,5,1549934973000
1549934984625.0000000000,16,5.3700000000,A01BBE,5,1549934973000
1549934984640.6201171875,16,8.1100000000,A01BBE,5,1549934973000
1549934984656.2500000000,16,10.4900000000,A01BBE,5,1549934973000
1549934984671.8798828125,16,11.9700000000,A01BBE,5,1549934973000
1549934984687.5000000000,16,12.2700000000,A01BBE,5,1549934973000
1549934984703.1201171875,16,11.3600000000,A01BBE,5,1549934973000
1549934984718.7500000000,16,9.2700000000,A01BBE,5,1549934973000
1549934984734.3798828125,16,6.1100000000,A01BBE,5,1549934973000
1549934984750.0000000000,16,1.9100000000,A01BBE,5,1549934973000
1549934984765.6201171875,16,-3.2200000000,A01BBE,5,1549934973000
1549934984781.2500000000,16,-9.1200000000,A01BBE,5,1549934973000
1549934984796.8798828125,16,-15.4000000000,A01BBE,5,1549934973000
1549934984812.5000000000,16,-21.5500000000,A01BBE,5,1549934973000
1549934984828.1201171875,16,-27.0000000000,A01BBE,5,1549934973000
1549934984843.7500000000,16,-31.3700000000,A01BBE,5,1549934973000
1549934984859.3798828125,16,-34.5900000000,A01BBE,5,1549934973000
1549934984875.0000000000,16,-36.9400000000,A01BBE,5,1549934973000
1549934984890.6201171875,16,-39.0600000000,A01BBE,5,1549934973000
1549934984906.2500000000,16,-41.7400000000,A01BBE,5,1549934973000
1549934984921.8798828125,16,-45.7000000000,A01BBE,5,1549934973000
1549934984937.5000000000,16,-51.3800000000,A01BBE,5,1549934973000
1549934984953.1201171875,16,-58.7000000000,A01BBE,5,1549934973000
1549934984968.7500000000,16,-67.0000000000,A01BBE,5,1549934973000
1549934984984.3798828125,16,-75.0500000000,A01BBE,5,1549934973000
1549934985000.0000000000,16,-81.3100000000,A01BBE,5,1549934973000
1549934985015.6201171875,16,-84.2800000000,A01BBE,5,1549934973000
1549934985031.2500000000,16,-82.8900000000,A01BBE,5,1549934973000
1549934985046.8798828125,16,-76.9300000000,A01BBE,5,1549934973000
1549934985062.5000000000,16,-67.1100000000,A01BBE,5,1549934973000
1549934985078.1201171875,16,-54.8400000000,A01BBE,5,1549934973000
1549934985093.7500000000,16,-41.8000000000,A01BBE,5,1549934973000
1549934985109.3798828125,16,-29.4800000000,A01BBE,5,1549934973000
1549934985125.0000000000,16,-18.7400000000,A01BBE,5,1549934973000
1549934985140.6201171875,16,-9.8100000000,A01BBE,5,1549934973000
1549934985156.2500000000,16,-2.3300000000,A01BBE,5,1549934973000
1549934985171.8798828125,16,4.3500000000,A01BBE,5,1549934973000
1549934985187.5000000000,16,10.8800000000,A01BBE,5,1549934973000
1549934985203.1201171875,16,17.7600000000,A01BBE,5,1549934973000
1549934985218.7500000000,16,25.1400000000,A01BBE,5,1549934973000
1549934985234.3798828125,16,32.8500000000,A01BBE,5,1549934973000
1549934985250.0000000000,16,40.4000000000,A01BBE,5,1549934973000
1549934985265.6201171875,16,47.1800000000,A01BBE,5,1549934973000
1549934985281.2500000000,16,52.6100000000,A01BBE,5,1549934973000
1549934985296.8798828125,16,56.3200000000,A01BBE,5,1549934973000
1549934985312.5000000000,16,58.3200000000,A01BBE,5,1549934973000
1549934985328.1201171875,16,58.9200000000,A01BBE,5,1549934973000
1549934985343.7500000000,16,58.5700000000,A01BBE,5,1549934973000
1549934985359.3798828125,16,57.7300000000,A01BBE,5,1549934973000
1549934985375.0000000000,16,56.7400000000,A01BBE,5,1549934973000
1549934985390.6201171875,16,55.7800000000,A01BBE,5,1549934973000
1549934985406.2500000000,16,54.9300000000,A01BBE,5,1549934973000
1549934985421.8798828125,16,54.2200000000,A01BBE,5,1549934973000
1549934985437.5000000000,16,53.5900000000,A01BBE,5,1549934973000
1549934985453.1201171875,16,52.8800000000,A01BBE,5,1549934973000
1549934985468.7500000000,16,51.9200000000,A01BBE,5,1549934973000
1549934985484.3798828125,16,50.5000000000,A01BBE,5,1549934973000
1549934985500.0000000000,16,48.5100000000,A01BBE,5,1549934973000
1549934985515.6201171875,16,45.9500000000,A01BBE,5,1549934973000
1549934985531.2500000000,16,42.9500000000,A01BBE,5,1549934973000
1549934985546.8798828125,16,39.7100000000,A01BBE,5,1549934973000
1549934985562.5000000000,16,36.4300000000,A01BBE,5,1549934973000
1549934985578.1201171875,16,33.2500000000,A01BBE,5,1549934973000
1549934985593.7500000000,16,30.2200000000,A01BBE,5,1549934973000
1549934985609.3798828125,16,27.2800000000,A01BBE,5,1549934973000
1549934985625.0000000000,16,24.3600000000,A01BBE,5,1549934973000
1549934985640.6201171875,16,21.3300000000,A01BBE,5,1549934973000
1549934985656.2500000000,16,18.1000000000,A01BBE,5,1549934973000
1549934985671.8798828125,16,14.6100000000,A01BBE,5,1549934973000
1549934985687.5000000000,16,10.8300000000,A01BBE,5,1549934973000
1549934985703.1201171875,16,6.7600000000,A01BBE,5,1549934973000
1549934985718.7500000000,16,2.4300000000,A01BBE,5,1549934973000
1549934985734.3798828125,16,-2.1300000000,A01BBE,5,1549934973000
1549934985750.0000000000,16,-6.8600000000,A01BBE,5,1549934973000
1549934985765.6201171875,16,-11.6900000000,A01BBE,5,1549934973000
1549934985781.2500000000,16,-16.5300000000,A01BBE,5,1549934973000
1549934985796.8798828125,16,-21.3500000000,A01BBE,5,1549934973000
1549934985812.5000000000,16,-26.1900000000,A01BBE,5,1549934973000
1549934985828.1201171875,16,-31.2100000000,A01BBE,5,1549934973000
1549934985843.7500000000,16,-36.7500000000,A01BBE,5,1549934973000
1549934985859.3798828125,16,-43.1600000000,A01BBE,5,1549934973000
1549934985875.0000000000,16,-50.6800000000,A01BBE,5,1549934973000
1549934985890.6201171875,16,-59.1800000000,A01BBE,5,1549934973000
1549934985906.2500000000,16,-67.9600000000,A01BBE,5,1549934973000
1549934985921.8798828125,16,-75.7800000000,A01BBE,5,1549934973000
1549934985937.5000000000,16,-81.1400000000,A01BBE,5,1549934973000
1549934985953.1201171875,16,-82.6200000000,A01BBE,5,1549934973000
1549934985968.7500000000,16,-79.5100000000,A01BBE,5,1549934973000
1549934985984.3798828125,16,-71.9900000000,A01BBE,5,1549934973000
1549934986000.0000000000,16,-61.1800000000,A01BBE,5,1549934973000
1549934986015.6201171875,16,-48.7500000000,A01BBE,5,1549934973000
1549934986031.2500000000,16,-36.3000000000,A01BBE,5,1549934973000
1549934986046.8798828125,16,-24.9800000000,A01BBE,5,1549934973000
1549934986062.5000000000,16,-15.1900000000,A01BBE,5,1549934973000
1549934986078.1201171875,16,-6.7500000000,A01BBE,5,1549934973000
1549934986093.7500000000,16,0.8400000000,A01BBE,5,1549934973000
1549934986109.3798828125,16,8.0400000000,A01BBE,5,1549934973000
1549934986125.0000000000,16,15.0900000000,A01BBE,5,1549934973000
1549934986140.6201171875,16,22.0200000000,A01BBE,5,1549934973000
1549934986156.2500000000,16,28.7000000000,A01BBE,5,1549934973000
1549934986171.8798828125,16,34.9600000000,A01BBE,5,1549934973000
1549934986187.5000000000,16,40.6500000000,A01BBE,5,1549934973000
1549934986203.1201171875,16,45.6800000000,A01BBE,5,1549934973000
1549934986218.7500000000,16,49.9000000000,A01BBE,5,1549934973000
1549934986234.3798828125,16,53.1800000000,A01BBE,5,1549934973000
1549934986250.0000000000,16,55.3500000000,A01BBE,5,1549934973000
1549934986265.6201171875,16,56.3300000000,A01BBE,5,1549934973000
1549934986281.2500000000,16,56.1900000000,A01BBE,5,1549934973000
1549934986296.8798828125,16,55.2000000000,A01BBE,5,1549934973000
1549934986312.5000000000,16,53.7700000000,A01BBE,5,1549934973000
1549934986328.1201171875,16,52.3900000000,A01BBE,5,1549934973000
1549934986343.7500000000,16,51.3900000000,A01BBE,5,1549934973000
1549934986359.3798828125,16,50.9200000000,A01BBE,5,1549934973000
1549934986375.0000000000,16,50.8900000000,A01BBE,5,1549934973000
1549934986390.6201171875,16,50.9600000000,A01BBE,5,1549934973000
1549934986406.2500000000,16,50.7100000000,A01BBE,5,1549934973000
1549934986421.8798828125,16,49.7400000000,A01BBE,5,1549934973000
1549934986437.5000000000,16,47.8300000000,A01BBE,5,1549934973000
1549934986453.1201171875,16,44.9600000000,A01BBE,5,1549934973000
1549934986468.7500000000,16,41.3300000000,A01BBE,5,1549934973000
1549934986484.3798828125,16,37.3000000000,A01BBE,5,1549934973000
1549934986500.0000000000,16,33.3100000000,A01BBE,5,1549934973000
1549934986515.6201171875,16,29.6700000000,A01BBE,5,1549934973000
1549934986531.2500000000,16,26.5400000000,A01BBE,5,1549934973000
1549934986546.8798828125,16,23.8400000000,A01BBE,5,1549934973000
1549934986562.5000000000,16,21.2700000000,A01BBE,5,1549934973000
1549934986578.1201171875,16,18.4200000000,A01BBE,5,1549934973000
1549934986593.7500000000,16,14.9300000000,A01BBE,5,1549934973000
1549934986609.3798828125,16,10.5800000000,A01BBE,5,1549934973000
1549934986625.0000000000,16,5.3600000000,A01BBE,5,1549934973000
1549934986640.6201171875,16,-0.4600000000,A01BBE,5,1549934973000
1549934986656.2500000000,16,-6.4500000000,A01BBE,5,1549934973000
1549934986671.8798828125,16,-12.1300000000,A01BBE,5,1549934973000
1549934986687.5000000000,16,-17.1600000000,A01BBE,5,1549934973000
1549934986703.1201171875,16,-21.4700000000,A01BBE,5,1549934973000
1549934986718.7500000000,16,-25.3100000000,A01BBE,5,1549934973000
1549934986734.3798828125,16,-29.1900000000,A01BBE,5,1549934973000
1549934986750.0000000000,16,-33.6500000000,A01BBE,5,1549934973000
1549934986765.6201171875,16,-39.1500000000,A01BBE,5,1549934973000
1549934986781.2500000000,16,-45.8700000000,A01BBE,5,1549934973000
1549934986796.8798828125,16,-53.6300000000,A01BBE,5,1549934973000
1549934986812.5000000000,16,-61.8500000000,A01BBE,5,1549934973000
1549934986828.1201171875,16,-69.5500000000,A01BBE,5,1549934973000
1549934986843.7500000000,16,-75.5000000000,A01BBE,5,1549934973000
1549934986859.3798828125,16,-78.4700000000,A01BBE,5,1549934973000
1549934986875.0000000000,16,-77.5100000000,A01BBE,5,1549934973000
1549934986890.6201171875,16,-72.3300000000,A01BBE,5,1549934973000
1549934986906.2500000000,16,-63.4800000000,A01BBE,5,1549934973000
1549934986921.8798828125,16,-52.1800000000,A01BBE,5,1549934973000
1549934986937.5000000000,16,-40.0000000000,A01BBE,5,1549934973000
1549934986953.1201171875,16,-28.3700000000,A01BBE,5,1549934973000
1549934986968.7500000000,16,-18.1400000000,A01BBE,5,1549934973000
1549934986984.3798828125,16,-9.5000000000,A01BBE,5,1549934973000
1549934987000.0000000000,16,-2.0500000000,A01BBE,5,1549934973000
1549934987015.6201171875,16,4.7800000000,A01BBE,5,1549934973000
1549934987031.2500000000,16,11.3800000000,A01BBE,5,1549934973000
1549934987046.8798828125,16,17.7800000000,A01BBE,5,1549934973000
1549934987062.5000000000,16,23.6800000000,A01BBE,5,1549934973000
1549934987078.1201171875,16,28.6400000000,A01BBE,5,1549934973000
1549934987093.7500000000,16,32.3400000000,A01BBE,5,1549934973000
1549934987109.3798828125,16,34.7800000000,A01BBE,5,1549934973000
1549934987125.0000000000,16,36.1900000000,A01BBE,5,1549934973000
1549934987140.6201171875,16,36.9400000000,A01BBE,5,1549934973000
1549934987156.2500000000,16,37.3600000000,A01BBE,5,1549934973000
1549934987171.8798828125,16,37.6100000000,A01BBE,5,1549934973000
1549934987187.5000000000,16,37.7400000000,A01BBE,5,1549934973000
1549934987203.1201171875,16,37.8100000000,A01BBE,5,1549934973000
1549934987218.7500000000,16,37.9300000000,A01BBE,5,1549934973000
1549934987234.3798828125,16,38.2500000000,A01BBE,5,1549934973000
1549934987250.0000000000,16,38.8600000000,A01BBE,5,1549934973000
1549934987265.6201171875,16,39.7100000000,A01BBE,5,1549934973000
1549934987281.2500000000,16,40.5200000000,A01BBE,5,1549934973000
1549934987296.8798828125,16,40.9300000000,A01BBE,5,1549934973000
1549934987312.5000000000,16,40.6200000000,A01BBE,5,1549934973000
1549934987328.1201171875,16,39.4500000000,A01BBE,5,1549934973000
1549934987343.7500000000,16,37.4900000000,A01BBE,5,1549934973000
1549934987359.3798828125,16,34.8900000000,A01BBE,5,1549934973000
1549934987375.0000000000,16,31.8700000000,A01BBE,5,1549934973000
1549934987390.6201171875,16,28.6300000000,A01BBE,5,1549934973000
1549934987406.2500000000,16,25.3200000000,A01BBE,5,1549934973000
1549934987421.8798828125,16,22.1100000000,A01BBE,5,1549934973000
1549934987437.5000000000,16,19.1500000000,A01BBE,5,1549934973000
1549934987453.1201171875,16,16.4600000000,A01BBE,5,1549934973000
1549934987468.7500000000,16,13.8900000000,A01BBE,5,1549934973000
1549934987484.3798828125,16,11.1300000000,A01BBE,5,1549934973000
1549934987500.0000000000,16,7.8100000000,A01BBE,5,1549934973000
1549934987515.6201171875,16,3.7200000000,A01BBE,5,1549934973000
1549934987531.2500000000,16,-1.1100000000,A01BBE,5,1549934973000
1549934987546.8798828125,16,-6.3700000000,A01BBE,5,1549934973000
1549934987562.5000000000,16,-11.6100000000,A01BBE,5,1549934973000
1549934987578.1201171875,16,-16.5000000000,A01BBE,5,1549934973000
1549934987593.7500000000,16,-20.9300000000,A01BBE,5,1549934973000
1549934987609.3798828125,16,-25.1300000000,A01BBE,5,1549934973000
1549934987625.0000000000,16,-29.5000000000,A01BBE,5,1549934973000
1549934987640.6201171875,16,-34.5100000000,A01BBE,5,1549934973000
1549934987656.2500000000,16,-40.5000000000,A01BBE,5,1549934973000
1549934987671.8798828125,16,-47.5700000000,A01BBE,5,1549934973000
1549934987687.5000000000,16,-55.5400000000,A01BBE,5,1549934973000
1549934987703.1201171875,16,-63.8600000000,A01BBE,5,1549934973000
1549934987718.7500000000,16,-71.6100000000,A01BBE,5,1549934973000
1549934987734.3798828125,16,-77.6000000000,A01BBE,5,1549934973000
1549934987750.0000000000,16,-80.6200000000,A01BBE,5,1549934973000
1549934987765.6201171875,16,-79.7400000000,A01BBE,5,1549934973000
1549934987781.2500000000,16,-74.7000000000,A01BBE,5,1549934973000
1549934987796.8798828125,16,-66.0400000000,A01BBE,5,1549934973000
1549934987812.5000000000,16,-55.0000000000,A01BBE,5,1549934973000
1549934987828.1201171875,16,-43.1000000000,A01BBE,5,1549934973000
1549934987843.7500000000,16,-31.7700000000,A01BBE,5,1549934973000
1549934987859.3798828125,16,-21.8700000000,A01BBE,5,1549934973000
1549934987875.0000000000,16,-13.6400000000,A01BBE,5,1549934973000
1549934987890.6201171875,16,-6.7100000000,A01BBE,5,1549934973000
1549934987906.2500000000,16,-0.4400000000,A01BBE,5,1549934973000
1549934987921.8798828125,16,5.8500000000,A01BBE,5,1549934973000
1549934987937.5000000000,16,12.5800000000,A01BBE,5,1549934973000
1549934987953.1201171875,16,19.7900000000,A01BBE,5,1549934973000
1549934987968.7500000000,16,27.1800000000,A01BBE,5,1549934973000
1549934987984.3798828125,16,34.1600000000,A01BBE,5,1549934973000
1549934988000.0000000000,16,40.1500000000,A01BBE,5,1549934973000
1549934988015.6201171875,16,44.6700000000,A01BBE,5,1549934973000
1549934988031.2500000000,16,47.5400000000,A01BBE,5,1549934973000
1549934988046.8798828125,16,48.8800000000,A01BBE,5,1549934973000
1549934988062.5000000000,16,49.0900000000,A01BBE,5,1549934973000
1549934988078.1201171875,16,48.6300000000,A01BBE,5,1549934973000
1549934988093.7500000000,16,47.9600000000,A01BBE,5,1549934973000
1549934988109.3798828125,16,47.3600000000,A01BBE,5,1549934973000
1549934988125.0000000000,16,46.9600000000,A01BBE,5,1549934973000
1549934988140.6201171875,16,46.7800000000,A01BBE,5,1549934973000
1549934988156.2500000000,16,46.6700000000,A01BBE,5,1549934973000
1549934988171.8798828125,16,46.4700000000,A01BBE,5,1549934973000
1549934988187.5000000000,16,46.0100000000,A01BBE,5,1549934973000
1549934988203.1201171875,16,45.1500000000,A01BBE,5,1549934973000
1549934988218.7500000000,16,43.8200000000,A01BBE,5,1549934973000
1549934988234.3798828125,16,42.0100000000,A01BBE,5,1549934973000
1549934988250.0000000000,16,39.7300000000,A01BBE,5,1549934973000
1549934988265.6201171875,16,37.0400000000,A01BBE,5,1549934973000
1549934988281.2500000000,16,34.0100000000,A01BBE,5,1549934973000
1549934988296.8798828125,16,30.7400000000,A01BBE,5,1549934973000
1549934988312.5000000000,16,27.4000000000,A01BBE,5,1549934973000
1549934988328.1201171875,16,24.1700000000,A01BBE,5,1549934973000
1549934988343.7500000000,16,21.1900000000,A01BBE,5,1549934973000
1549934988359.3798828125,16,18.4800000000,A01BBE,5,1549934973000
1549934988375.0000000000,16,15.9100000000,A01BBE,5,1549934973000
1549934988390.6201171875,16,13.2500000000,A01BBE,5,1549934973000
1549934988406.2500000000,16,10.2800000000,A01BBE,5,1549934973000
1549934988421.8798828125,16,6.8500000000,A01BBE,5,1549934973000
1549934988437.5000000000,16,2.9900000000,A01BBE,5,1549934973000
1549934988453.1201171875,16,-1.1900000000,A01BBE,5,1549934973000
1549934988468.7500000000,16,-5.5300000000,A01BBE,5,1549934973000
1549934988484.3798828125,16,-9.8400000000,A01BBE,5,1549934973000
1549934988500.0000000000,16,-14.0700000000,A01BBE,5,1549934973000
1549934988515.6201171875,16,-18.1800000000,A01BBE,5,1549934973000
1549934988531.2500000000,16,-22.2400000000,A01BBE,5,1549934973000
1549934988546.8798828125,16,-26.3600000000,A01BBE,5,1549934973000
1549934988562.5000000000,16,-30.7500000000,A01BBE,5,1549934973000
1549934988578.1201171875,16,-35.6500000000,A01BBE,5,1549934973000
1549934988593.7500000000,16,-41.3600000000,A01BBE,5,1549934973000
1549934988609.3798828125,16,-48.0800000000,A01BBE,5,1549934973000
1549934988625.0000000000,16,-55.8200000000,A01BBE,5,1549934973000
1549934988640.6201171875,16,-64.2300000000,A01BBE,5,1549934973000
1549934988656.2500000000,16,-72.4400000000,A01BBE,5,1549934973000
1549934988671.8798828125,16,-79.1900000000,A01BBE,5,1549934973000
1549934988687.5000000000,16,-83.0800000000,A01BBE,5,1549934973000
1549934988703.1201171875,16,-82.9500000000,A01BBE,5,1549934973000
1549934988718.7500000000,16,-78.3700000000,A01BBE,5,1549934973000
1549934988734.3798828125,16,-69.7700000000,A01BBE,5,1549934973000
1549934988750.0000000000,16,-58.4100000000,A01BBE,5,1549934973000
1549934988765.6201171875,16,-45.9800000000,A01BBE,5,1549934973000
1549934988781.2500000000,16,-34.0100000000,A01BBE,5,1549934973000
1549934988796.8798828125,16,-23.4900000000,A01BBE,5,1549934973000
1549934988812.5000000000,16,-14.6400000000,A01BBE,5,1549934973000
1549934988828.1201171875,16,-7.0700000000,A01BBE,5,1549934973000
1549934988843.7500000000,16,-0.1600000000,A01BBE,5,1549934973000
1549934988859.3798828125,16,6.6100000000,A01BBE,5,1549934973000
1549934988875.0000000000,16,13.4900000000,A01BBE,5,1549934973000
1549934988890.6201171875,16,20.4400000000,A01BBE,5,1549934973000
1549934988906.2500000000,16,27.2400000000,A01BBE,5,1549934973000
1549934988921.8798828125,16,33.6400000000,A01BBE,5,1549934973000
1549934988937.5000000000,16,39.4300000000,A01BBE,5,1549934973000
1549934988953.1201171875,16,44.4600000000,A01BBE,5,1549934973000
1549934988968.7500000000,16,48.5600000000,A01BBE,5,1549934973000
1549934988984.3798828125,16,51.6200000000,A01BBE,5,1549934973000
1549934989000.0000000000,16,53.5900000000,A01BBE,5,1549934973000
1549934989015.6201171875,16,54.5800000000,A01BBE,5,1549934973000
1549934989031.2500000000,16,54.9300000000,A01BBE,5,1549934973000
1549934989046.8798828125,16,55.0900000000,A01BBE,5,1549934973000
1549934989062.5000000000,16,55.4900000000,A01BBE,5,1549934973000
1549934989078.1201171875,16,56.3500000000,A01BBE,5,1549934973000
1549934989093.7500000000,16,57.5700000000,A01BBE,5,1549934973000
1549934989109.3798828125,16,58.8100000000,A01BBE,5,1549934973000
1549934989125.0000000000,16,59.5900000000,A01BBE,5,1549934973000
1549934989140.6201171875,16,59.5700000000,A01BBE,5,1549934973000
1549934989156.2500000000,16,58.6600000000,A01BBE,5,1549934973000
1549934989171.8798828125,16,57.0500000000,A01BBE,5,1549934973000
1549934989187.5000000000,16,55.0900000000,A01BBE,5,1549934973000
1549934989203.1201171875,16,53.1400000000,A01BBE,5,1549934973000
1549934989218.7500000000,16,51.4200000000,A01BBE,5,1549934973000
1549934989234.3798828125,16,49.9800000000,A01BBE,5,1549934973000
1549934989250.0000000000,16,48.6900000000,A01BBE,5,1549934973000
1549934989265.6201171875,16,47.4000000000,A01BBE,5,1549934973000
1549934989281.2500000000,16,45.9700000000,A01BBE,5,1549934973000
1549934989296.8798828125,16,44.4100000000,A01BBE,5,1549934973000
1549934989312.5000000000,16,42.7800000000,A01BBE,5,1549934973000
1549934989328.1201171875,16,41.2800000000,A01BBE,5,1549934973000
1549934989343.7500000000,16,39.9900000000,A01BBE,5,1549934973000
1549934989359.3798828125,16,38.9000000000,A01BBE,5,1549934973000
1549934989375.0000000000,16,37.7900000000,A01BBE,5,1549934973000
1549934989390.6201171875,16,36.3300000000,A01BBE,5,1549934973000
1549934989406.2500000000,16,34.2600000000,A01BBE,5,1549934973000
1549934989421.8798828125,16,31.4700000000,A01BBE,5,1549934973000
1549934989437.5000000000,16,28.1200000000,A01BBE,5,1549934973000
1549934989453.1201171875,16,24.5500000000,A01BBE,5,1549934973000
1549934989468.7500000000,16,21.1300000000,A01BBE,5,1549934973000
1549934989484.3798828125,16,18.1200000000,A01BBE,5,1549934973000
1549934989500.0000000000,16,15.5500000000,A01BBE,5,1549934973000
1549934989515.6201171875,16,13.2600000000,A01BBE,5,1549934973000
1549934989531.2500000000,16,10.9400000000,A01BBE,5,1549934973000
1549934989546.8798828125,16,8.2700000000,A01BBE,5,1549934973000
1549934989562.5000000000,16,4.8600000000,A01BBE,5,1549934973000
1549934989578.1201171875,16,0.4000000000,A01BBE,5,1549934973000
1549934989593.7500000000,16,-5.3800000000,A01BBE,5,1549934973000
1549934989609.3798828125,16,-12.6200000000,A01BBE,5,1549934973000
1549934989625.0000000000,16,-21.1600000000,A01BBE,5,1549934973000
1549934989640.6201171875,16,-30.3800000000,A01BBE,5,1549934973000
1549934989656.2500000000,16,-39.2700000000,A01BBE,5,1549934973000
1549934989671.8798828125,16,-46.6000000000,A01BBE,5,1549934973000
1549934989687.5000000000,16,-51.2600000000,A01BBE,5,1549934973000
1549934989703.1201171875,16,-52.7500000000,A01BBE,5,1549934973000
1549934989718.7500000000,16,-51.3200000000,A01BBE,5,1549934973000
1549934989734.3798828125,16,-47.9100000000,A01BBE,5,1549934973000
1549934989750.0000000000,16,-43.7800000000,A01BBE,5,1549934973000
1549934989765.6201171875,16,-39.9600000000,A01BBE,5,1549934973000
1549934989781.2500000000,16,-36.8700000000,A01BBE,5,1549934973000
1549934989796.8798828125,16,-34.2600000000,A01BBE,5,1549934973000
1549934989812.5000000000,16,-31.3600000000,A01BBE,5,1549934973000
1549934989828.1201171875,16,-27.3800000000,A01BBE,5,1549934973000
1549934989843.7500000000,16,-21.8000000000,A01BBE,5,1549934973000
1549934989859.3798828125,16,-14.5500000000,A01BBE,5,1549934973000
1549934989875.0000000000,16,-5.9100000000,A01BBE,5,1549934973000
1549934989890.6201171875,16,3.6300000000,A01BBE,5,1549934973000
1549934989906.2500000000,16,13.4900000000,A01BBE,5,1549934973000
1549934989921.8798828125,16,23.1100000000,A01BBE,5,1549934973000
1549934989937.5000000000,16,31.9500000000,A01BBE,5,1549934973000
1549934989953.1201171875,16,39.5600000000,A01BBE,5,1549934973000
1549934989968.7500000000,16,45.7400000000,A01BBE,5,1549934973000
1549934989984.3798828125,16,50.6200000000,A01BBE,5,1549934973000
1549934990000.0000000000,16,54.6500000000,A01BBE,5,1549934973000
1549934990015.6201171875,16,58.5100000000,A01BBE,5,1549934973000
1549934990031.2500000000,16,62.7600000000,A01BBE,5,1549934973000
1549934990046.8798828125,16,67.6700000000,A01BBE,5,1549934973000
1549934990062.5000000000,16,72.9600000000,A01BBE,5,1549934973000
1549934990078.1201171875,16,77.8200000000,A01BBE,5,1549934973000
1549934990093.7500000000,16,81.0200000000,A01BBE,5,1549934973000
1549934990109.3798828125,16,81.2400000000,A01BBE,5,1549934973000
1549934990125.0000000000,16,77.5100000000,A01BBE,5,1549934973000
1549934990140.6201171875,16,69.4300000000,A01BBE,5,1549934973000
1549934990156.2500000000,16,57.4200000000,A01BBE,5,1549934973000
1549934990171.8798828125,16,42.4600000000,A01BBE,5,1549934973000
1549934990187.5000000000,16,25.9500000000,A01BBE,5,1549934973000
1549934990203.1201171875,16,9.2300000000,A01BBE,5,1549934973000
1549934990218.7500000000,16,-6.7400000000,A01BBE,5,1549934973000
1549934990234.3798828125,16,-21.4000000000,A01BBE,5,1549934973000
1549934990250.0000000000,16,-34.6000000000,A01BBE,5,1549934973000
1549934990265.6201171875,16,-46.3400000000,A01BBE,5,1549934973000
1549934990281.2500000000,16,-56.5600000000,A01BBE,5,1549934973000
1549934990296.8798828125,16,-65.0900000000,A01BBE,5,1549934973000
1549934990312.5000000000,16,-71.6000000000,A01BBE,5,1549934973000
1549934990328.1201171875,16,-75.8800000000,A01BBE,5,1549934973000
1549934990343.7500000000,16,-77.9100000000,A01BBE,5,1549934973000
1549934990359.3798828125,16,-77.9700000000,A01BBE,5,1549934973000
1549934990375.0000000000,16,-76.6500000000,A01BBE,5,1549934973000
1549934990390.6201171875,16,-74.6900000000,A01BBE,5,1549934973000
1549934990406.2500000000,16,-72.7600000000,A01BBE,5,1549934973000
1549934990421.8798828125,16,-71.3600000000,A01BBE,5,1549934973000
1549934990437.5000000000,16,-70.7400000000,A01BBE,5,1549934973000
1549934990453.1201171875,16,-70.9100000000,A01BBE,5,1549934973000
1549934990468.7500000000,16,-71.7400000000,A01BBE,5,1549934973000
1549934990484.3798828125,16,-73.1000000000,A01BBE,5,1549934973000
1549934990500.0000000000,16,-74.8400000000,A01BBE,5,1549934973000
1549934990515.6201171875,16,-76.8400000000,A01BBE,5,1549934973000
1549934990531.2500000000,16,-79.0800000000,A01BBE,5,1549934973000
1549934990546.8798828125,16,-81.6300000000,A01BBE,5,1549934973000
1549934990562.5000000000,16,-84.6500000000,A01BBE,5,1549934973000
1549934990578.1201171875,16,-88.3300000000,A01BBE,5,1549934973000
1549934990593.7500000000,16,-92.6100000000,A01BBE,5,1549934973000
1549934990609.3798828125,16,-97.0300000000,A01BBE,5,1549934973000
1549934990625.0000000000,16,-100.6200000000,A01BBE,5,1549934973000
1549934990640.6201171875,16,-102.1000000000,A01BBE,5,1549934973000
1549934990656.2500000000,16,-100.2900000000,A01BBE,5,1549934973000
1549934990671.8798828125,16,-94.6400000000,A01BBE,5,1549934973000
1549934990687.5000000000,16,-85.4800000000,A01BBE,5,1549934973000
1549934990703.1201171875,16,-73.9700000000,A01BBE,5,1549934973000
1549934990718.7500000000,16,-61.6600000000,A01BBE,5,1549934973000
1549934990734.3798828125,16,-49.9200000000,A01BBE,5,1549934973000
1549934990750.0000000000,16,-39.5600000000,A01BBE,5,1549934973000
1549934990765.6201171875,16,-30.6800000000,A01BBE,5,1549934973000
1549934990781.2500000000,16,-22.8900000000,A01BBE,5,1549934973000
1549934990796.8798828125,16,-15.6300000000,A01BBE,5,1549934973000
1549934990812.5000000000,16,-8.5300000000,A01BBE,5,1549934973000
1549934990828.1201171875,16,-1.4600000000,A01BBE,5,1549934973000
1549934990843.7500000000,16,5.5400000000,A01BBE,5,1549934973000
1549934990859.3798828125,16,12.3100000000,A01BBE,5,1549934973000
1549934990875.0000000000,16,18.7400000000,A01BBE,5,1549934973000
1549934990890.6201171875,16,24.6800000000,A01BBE,5,1549934973000
1549934990906.2500000000,16,29.9800000000,A01BBE,5,1549934973000
1549934990921.8798828125,16,34.4300000000,A01BBE,5,1549934973000
1549934990937.5000000000,16,37.9000000000,A01BBE,5,1549934973000
1549934990953.1201171875,16,40.3000000000,A01BBE,5,1549934973000
1549934990968.7500000000,16,41.6800000000,A01BBE,5,1549934973000
1549934990984.3798828125,16,42.2000000000,A01BBE,5,1549934973000
1549934991000.0000000000,16,42.0500000000,A01BBE,5,1549934973000
1549934991015.6201171875,16,41.4300000000,A01BBE,5,1549934973000
1549934991031.2500000000,16,40.5100000000,A01BBE,5,1549934973000
1549934991046.8798828125,16,39.4300000000,A01BBE,5,1549934973000
1549934991062.5000000000,16,38.2700000000,A01BBE,5,1549934973000
1549934991078.1201171875,16,37.0800000000,A01BBE,5,1549934973000
1549934991093.7500000000,16,35.8100000000,A01BBE,5,1549934973000
1549934991109.3798828125,16,34.4000000000,A01BBE,5,1549934973000
1549934991125.0000000000,16,32.7500000000,A01BBE,5,1549934973000
1549934991140.6201171875,16,30.8500000000,A01BBE,5,1549934973000
1549934991156.2500000000,16,28.8100000000,A01BBE,5,1549934973000
1549934991171.8798828125,16,26.8300000000,A01BBE,5,1549934973000
1549934991187.5000000000,16,25.0600000000,A01BBE,5,1549934973000
1549934991203.1201171875,16,23.5400000000,A01BBE,5,1549934973000
1549934991218.7500000000,16,22.1000000000,A01BBE,5,1549934973000
1549934991234.3798828125,16,20.4600000000,A01BBE,5,1549934973000
1549934991250.0000000000,16,18.3700000000,A01BBE,5,1549934973000
1549934991265.6201171875,16,15.8000000000,A01BBE,5,1549934973000
1549934991281.2500000000,16,12.9100000000,A01BBE,5,1549934973000
1549934991296.8798828125,16,10.0400000000,A01BBE,5,1549934973000
1549934991312.5000000000,16,7.4400000000,A01BBE,5,1549934973000
1549934991328.1201171875,16,5.2100000000,A01BBE,5,1549934973000
1549934991343.7500000000,16,3.1400000000,A01BBE,5,1549934973000
1549934991359.3798828125,16,0.8700000000,A01BBE,5,1549934973000
1549934991375.0000000000,16,-1.9400000000,A01BBE,5,1549934973000
1549934991390.6201171875,16,-5.4700000000,A01BBE,5,1549934973000
1549934991406.2500000000,16,-9.6400000000,A01BBE,5,1549934973000
1549934991421.8798828125,16,-14.1800000000,A01BBE,5,1549934973000
1549934991437.5000000000,16,-18.7300000000,A01BBE,5,1549934973000
1549934991453.1201171875,16,-23.0300000000,A01BBE,5,1549934973000
1549934991468.7500000000,16,-27.0300000000,A01BBE,5,1549934973000
1549934991484.3798828125,16,-30.9000000000,A01BBE,5,1549934973000
1549934991500.0000000000,16,-35.0000000000,A01BBE,5,1549934973000
1549934991515.6201171875,16,-39.7400000000,A01BBE,5,1549934973000
1549934991531.2500000000,16,-45.4200000000,A01BBE,5,1549934973000
1549934991546.8798828125,16,-52.0200000000,A01BBE,5,1549934973000
1549934991562.5000000000,16,-59.0300000000,A01BBE,5,1549934973000
1549934991578.1201171875,16,-65.4000000000,A01BBE,5,1549934973000
1549934991593.7500000000,16,-69.7800000000,A01BBE,5,1549934973000
1549934991609.3798828125,16,-70.8900000000,A01BBE,5,1549934973000
1549934991625.0000000000,16,-67.9200000000,A01BBE,5,1549934973000
1549934991640.6201171875,16,-60.8900000000,A01BBE,5,1549934973000
1549934991656.2500000000,16,-50.6400000000,A01BBE,5,1549934973000
1549934991671.8798828125,16,-38.5800000000,A01BBE,5,1549934973000
1549934991687.5000000000,16,-26.2600000000,A01BBE,5,1549934973000
1549934991703.1201171875,16,-14.9300000000,A01BBE,5,1549934973000
1549934991718.7500000000,16,-5.3300000000,A01BBE,5,1549934973000
1549934991734.3798828125,16,2.3700000000,A01BBE,5,1549934973000
1549934991750.0000000000,16,8.3400000000,A01BBE,5,1549934973000
1549934991765.6201171875,16,13.0000000000,A01BBE,5,1549934973000
1549934991781.2500000000,16,16.8500000000,A01BBE,5,1549934973000
1549934991796.8798828125,16,20.3400000000,A01BBE,5,1549934973000
1549934991812.5000000000,16,23.8500000000,A01BBE,5,1549934973000
1549934991828.1201171875,16,27.5300000000,A01BBE,5,1549934973000
1549934991843.7500000000,16,31.2500000000,A01BBE,5,1549934973000
1549934991859.3798828125,16,34.6600000000,A01BBE,5,1549934973000
1549934991875.0000000000,16,37.3200000000,A01BBE,5,1549934973000
1549934991890.6201171875,16,38.9500000000,A01BBE,5,1549934973000
1549934991906.2500000000,16,39.5400000000,A01BBE,5,1549934973000
1549934991921.8798828125,16,39.3800000000,A01BBE,5,1549934973000
1549934991937.5000000000,16,38.8300000000,A01BBE,5,1549934973000
1549934991953.1201171875,16,38.2100000000,A01BBE,5,1549934973000
1549934991968.7500000000,16,37.6100000000,A01BBE,5,1549934973000
1549934991984.3798828125,16,37.0200000000,A01BBE,5,1549934973000
1549934992000.0000000000,16,36.3500000000,A01BBE,5,1549934973000
1549934992015.6201171875,16,35.5900000000,A01BBE,5,1549934973000
1549934992031.2500000000,16,34.8100000000,A01BBE,5,1549934973000
1549934992046.8798828125,16,34.0900000000,A01BBE,5,1549934973000
1549934992062.5000000000,16,33.4000000000,A01BBE,5,1549934973000
1549934992078.1201171875,16,32.5600000000,A01BBE,5,1549934973000
1549934992093.7500000000,16,31.2900000000,A01BBE,5,1549934973000
1549934992109.3798828125,16,29.3500000000,A01BBE,5,1549934973000
1549934992125.0000000000,16,26.7000000000,A01BBE,5,1549934973000
1549934992140.6201171875,16,23.5100000000,A01BBE,5,1549934973000
1549934992156.2500000000,16,20.1400000000,A01BBE,5,1549934973000
1549934992171.8798828125,16,16.9600000000,A01BBE,5,1549934973000
1549934992187.5000000000,16,14.2300000000,A01BBE,5,1549934973000
1549934992203.1201171875,16,11.9600000000,A01BBE,5,1549934973000
1549934992218.7500000000,16,9.9200000000,A01BBE,5,1549934973000
1549934992234.3798828125,16,7.7700000000,A01BBE,5,1549934973000
1549934992250.0000000000,16,5.1400000000,A01BBE,5,1549934973000
1549934992265.6201171875,16,1.8200000000,A01BBE,5,1549934973000
1549934992281.2500000000,16,-2.1800000000,A01BBE,5,1549934973000
1549934992296.8798828125,16,-6.6500000000,A01BBE,5,1549934973000
1549934992312.5000000000,16,-11.2600000000,A01BBE,5,1549934973000
1549934992328.1201171875,16,-15.6900000000,A01BBE,5,1549934973000
1549934992343.7500000000,16,-19.7500000000,A01BBE,5,1549934973000
1549934992359.3798828125,16,-23.3700000000,A01BBE,5,1549934973000
1549934992375.0000000000,16,-26.7100000000,A01BBE,5,1549934973000
1549934992390.6201171875,16,-30.0000000000,A01BBE,5,1549934973000
1549934992406.2500000000,16,-33.5800000000,A01BBE,5,1549934973000
1549934992421.8798828125,16,-37.8500000000,A01BBE,5,1549934973000
1549934992437.5000000000,16,-43.1500000000,A01BBE,5,1549934973000
1549934992453.1201171875,16,-49.5900000000,A01BBE,5,1549934973000
1549934992468.7500000000,16,-56.8700000000,A01BBE,5,1549934973000
1549934992484.3798828125,16,-64.1400000000,A01BBE,5,1549934973000
1549934992500.0000000000,16,-70.0200000000,A01BBE,5,1549934973000
1549934992515.6201171875,16,-73.0000000000,A01BBE,5,1549934973000
1549934992531.2500000000,16,-71.8800000000,A01BBE,5,1549934973000
1549934992546.8798828125,16,-66.3200000000,A01BBE,5,1549934973000
1549934992562.5000000000,16,-56.9600000000,A01BBE,5,1549934973000
1549934992578.1201171875,16,-45.3200000000,A01BBE,5,1549934973000
1549934992593.7500000000,16,-33.2000000000,A01BBE,5,1549934973000
1549934992609.3798828125,16,-22.1200000000,A01BBE,5,1549934973000
1549934992625.0000000000,16,-12.9500000000,A01BBE,5,1549934973000
1549934992640.6201171875,16,-5.8000000000,A01BBE,5,1549934973000
1549934992656.2500000000,16,-0.2900000000,A01BBE,5,1549934973000
1549934992671.8798828125,16,4.2200000000,A01BBE,5,1549934973000
1549934992687.5000000000,16,8.2500000000,A01BBE,5,1549934973000
1549934992703.1201171875,16,12.2100000000,A01BBE,5,1549934973000
1549934992718.7500000000,16,16.2800000000,A01BBE,5,1549934973000
1549934992734.3798828125,16,20.5000000000,A01BBE,5,1549934973000
1549934992750.0000000000,16,24.7400000000,A01BBE,5,1549934973000
1549934992765.6201171875,16,28.7500000000,A01BBE,5,1549934973000
1549934992781.2500000000,16,32.2300000000,A01BBE,5,1549934973000
1549934992796.8798828125,16,34.8800000000,A01BBE,5,1549934973000
1549934992812.5000000000,16,36.5400000000,A01BBE,5,1549934973000
1549934992828.1201171875,16,37.1700000000,A01BBE,5,1549934973000
1549934992843.7500000000,16,36.9400000000,A01BBE,5,1549934973000
1549934992859.3798828125,16,36.1000000000,A01BBE,5,1549934973000
1549934992875.0000000000,16,34.9800000000,A01BBE,5,1549934973000
1549934992890.6201171875,16,33.8800000000,A01BBE,5,1549934973000
1549934992906.2500000000,16,33.0400000000,A01BBE,5,1549934973000
1549934992921.8798828125,16,32.5800000000,A01BBE,5,1549934973000
1549934992937.5000000000,16,32.3900000000,A01BBE,5,1549934973000
1549934992953.1201171875,16,32.1800000000,A01BBE,5,1549934973000
1549934992968.7500000000,16,31.4900000000,A01BBE,5,1549934973000
1549934992984.3798828125,16,29.9400000000,A01BBE,5,1549934973000
1549934993000.0000000000,16,27.3400000000,A01BBE,5,1549934973000
1549934993015.6201171875,16,23.8300000000,A01BBE,5,1549934973000
1549934993031.2500000000,16,19.8700000000,A01BBE,5,1549934973000
1549934993046.8798828125,16,16.0200000000,A01BBE,5,1549934973000
1549934993062.5000000000,16,12.7000000000,A01BBE,5,1549934973000
1549934993078.1201171875,16,9.9900000000,A01BBE,5,1549934973000
1549934993093.7500000000,16,7.5900000000,A01BBE,5,1549934973000
1549934993109.3798828125,16,4.9400000000,A01BBE,5,1549934973000
1549934993125.0000000000,16,1.5800000000,A01BBE,5,1549934973000
1549934993140.6201171875,16,-2.6800000000,A01BBE,5,1549934973000
1549934993156.2500000000,16,-7.5900000000,A01BBE,5,1549934973000
1549934993171.8798828125,16,-12.6100000000,A01BBE,5,1549934973000
1549934993187.5000000000,16,-17.2100000000,A01BBE,5,1549934973000
1549934993203.1201171875,16,-21.0700000000,A01BBE,5,1549934973000
1549934993218.7500000000,16,-24.3000000000,A01BBE,5,1549934973000
1549934993234.3798828125,16,-27.3200000000,A01BBE,5,1549934973000
1549934993250.0000000000,16,-30.7500000000,A01BBE,5,1549934973000
1549934993265.6201171875,16,-35.1300000000,A01BBE,5,1549934973000
1549934993281.2500000000,16,-40.7600000000,A01BBE,5,1549934973000
1549934993296.8798828125,16,-47.5900000000,A01BBE,5,1549934973000
1549934993312.5000000000,16,-55.1700000000,A01BBE,5,1549934973000
1549934993328.1201171875,16,-62.6800000000,A01BBE,5,1549934973000
1549934993343.7500000000,16,-68.9600000000,A01BBE,5,1549934973000
1549934993359.3798828125,16,-72.6800000000,A01BBE,5,1549934973000
1549934993375.0000000000,16,-72.6700000000,A01BBE,5,1549934973000
1549934993390.6201171875,16,-68.3700000000,A01BBE,5,1549934973000
1549934993406.2500000000,16,-60.0300000000,A01BBE,5,1549934973000
1549934993421.8798828125,16,-48.7800000000,A01BBE,5,1549934973000
1549934993437.5000000000,16,-36.3300000000,A01BBE,5,1549934973000
1549934993453.1201171875,16,-24.4100000000,A01BBE,5,1549934973000
1549934993468.7500000000,16,-14.3000000000,A01BBE,5,1549934973000
1549934993484.3798828125,16,-6.5000000000,A01BBE,5,1549934973000
1549934993500.0000000000,16,-0.7200000000,A01BBE,5,1549934973000
1549934993515.6201171875,16,3.7900000000,A01BBE,5,1549934973000
1549934993531.2500000000,16,7.9000000000,A01BBE,5,1549934973000
1549934993546.8798828125,16,12.2000000000,A01BBE,5,1549934973000
1549934993562.5000000000,16,16.9100000000,A01BBE,5,1549934973000
1549934993578.1201171875,16,21.8200000000,A01BBE,5,1549934973000
1549934993593.7500000000,16,26.4800000000,A01BBE,5,1549934973000
1549934993609.3798828125,16,30.3800000000,A01BBE,5,1549934973000
1549934993625.0000000000,16,33.1700000000,A01BBE,5,1549934973000
1549934993640.6201171875,16,34.7500000000,A01BBE,5,1549934973000
1549934993656.2500000000,16,35.2900000000,A01BBE,5,1549934973000
1549934993671.8798828125,16,35.1400000000,A01BBE,5,1549934973000
1549934993687.5000000000,16,34.6500000000,A01BBE,5,1549934973000
1549934993703.1201171875,16,34.0900000000,A01BBE,5,1549934973000
1549934993718.7500000000,16,33.5700000000,A01BBE,5,1549934973000
1549934993734.3798828125,16,33.0700000000,A01BBE,5,1549934973000
1549934993750.0000000000,16,32.4800000000,A01BBE,5,1549934973000
1549934993765.6201171875,16,31.6900000000,A01BBE,5,1549934973000
1549934993781.2500000000,16,30.6100000000,A01BBE,5,1549934973000
1549934993796.8798828125,16,29.1400000000,A01BBE,5,1549934973000
1549934993812.5000000000,16,27.1700000000,A01BBE,5,1549934973000
1549934993828.1201171875,16,24.6500000000,A01BBE,5,1549934973000
1549934993843.7500000000,16,21.6200000000,A01BBE,5,1549934973000
1549934993859.3798828125,16,18.2200000000,A01BBE,5,1549934973000
1549934993875.0000000000,16,14.6800000000,A01BBE,5,1549934973000
1549934993890.6201171875,16,11.2200000000,A01BBE,5,1549934973000
1549934993906.2500000000,16,7.9400000000,A01BBE,5,1549934973000
1549934993921.8798828125,16,4.8100000000,A01BBE,5,1549934973000
1549934993937.5000000000,16,1.7000000000,A01BBE,5,1549934973000
1549934993953.1201171875,16,-1.5300000000,A01BBE,5,1549934973000
1549934993968.7500000000,16,-4.9900000000,A01BBE,5,1549934973000
1549934993984.3798828125,16,-8.6200000000,A01BBE,5,1549934973000
1549934994000.0000000000,16,-12.3800000000,A01BBE,5,1549934973000
1549934994015.6201171875,16,-16.1900000000,A01BBE,5,1549934973000
1549934994031.2500000000,16,-20.0800000000,A01BBE,5,1549934973000
1549934994046.8798828125,16,-24.1900000000,A01BBE,5,1549934973000
1549934994062.5000000000,16,-28.7600000000,A01BBE,5,1549934973000
1549934994078.1201171875,16,-34.0900000000,A01BBE,5,1549934973000
1549934994093.7500000000,16,-40.4000000000,A01BBE,5,1549934973000
1549934994109.3798828125,16,-47.6900000000,A01BBE,5,1549934973000
1549934994125.0000000000,16,-55.5700000000,A01BBE,5,1549934973000
1549934994140.6201171875,16,-63.1000000000,A01BBE,5,1549934973000
1549934994156.2500000000,16,-69.0000000000,A01BBE,5,1549934973000
1549934994171.8798828125,16,-71.8100000000,A01BBE,5,1549934973000
1549934994187.5000000000,16,-70.5100000000,A01BBE,5,1549934973000
1549934994203.1201171875,16,-64.8100000000,A01BBE,5,1549934973000
1549934994218.7500000000,16,-55.4100000000,A01BBE,5,1549934973000
1549934994234.3798828125,16,-43.8100000000,A01BBE,5,1549934973000
1549934994250.0000000000,16,-31.7700000000,A01BBE,5,1549934973000
1549934994265.6201171875,16,-20.7700000000,A01BBE,5,1549934973000
1549934994281.2500000000,16,-11.6100000000,A01BBE,5,1549934973000
1549934994296.8798828125,16,-4.3200000000,A01BBE,5,1549934973000
1549934994312.5000000000,16,1.6200000000,A01BBE,5,1549934973000
1549934994328.1201171875,16,6.8900000000,A01BBE,5,1549934973000
1549934994343.7500000000,16,12.0300000000,A01BBE,5,1549934973000
1549934994359.3798828125,16,17.2500000000,A01BBE,5,1549934973000
1549934994375.0000000000,16,22.5100000000,A01BBE,5,1549934973000
1549934994390.6201171875,16,27.5700000000,A01BBE,5,1549934973000
1549934994406.2500000000,16,32.1600000000,A01BBE,5,1549934973000
1549934994421.8798828125,16,36.0300000000,A01BBE,5,1549934973000
1549934994437.5000000000,16,39.0600000000,A01BBE,5,1549934973000
1549934994453.1201171875,16,41.2300000000,A01BBE,5,1549934973000
1549934994468.7500000000,16,42.6200000000,A01BBE,5,1549934973000
1549934994484.3798828125,16,43.3400000000,A01BBE,5,1549934973000
1549934994500.0000000000,16,43.4900000000,A01BBE,5,1549934973000
1549934994515.6201171875,16,43.1900000000,A01BBE,5,1549934973000
1549934994531.2500000000,16,42.5500000000,A01BBE,5,1549934973000
1549934994546.8798828125,16,41.7400000000,A01BBE,5,1549934973000
1549934994562.5000000000,16,41.0100000000,A01BBE,5,1549934973000
1549934994578.1201171875,16,40.5400000000,A01BBE,5,1549934973000
1549934994593.7500000000,16,40.3600000000,A01BBE,5,1549934973000
1549934994609.3798828125,16,40.2700000000,A01BBE,5,1549934973000
1549934994625.0000000000,16,39.8600000000,A01BBE,5,1549934973000
1549934994640.6201171875,16,38.7000000000,A01BBE,5,1549934973000
1549934994656.2500000000,16,36.5300000000,A01BBE,5,1549934973000
1549934994671.8798828125,16,33.4000000000,A01BBE,5,1549934973000
1549934994687.5000000000,16,29.6300000000,A01BBE,5,1549934973000
1549934994703.1201171875,16,25.6400000000,A01BBE,5,1549934973000
1549934994718.7500000000,16,21.7800000000,A01BBE,5,1549934973000
1549934994734.3798828125,16,18.2100000000,A01BBE,5,1549934973000
1549934994750.0000000000,16,14.9100000000,A01BBE,5,1549934973000
1549934994765.6201171875,16,11.7200000000,A01BBE,5,1549934973000
1549934994781.2500000000,16,8.4900000000,A01BBE,5,1549934973000
1549934994796.8798828125,16,5.1200000000,A01BBE,5,1549934973000
1549934994812.5000000000,16,1.5300000000,A01BBE,5,1549934973000
1549934994828.1201171875,16,-2.3300000000,A01BBE,5,1549934973000
1549934994843.7500000000,16,-6.4700000000,A01BBE,5,1549934973000
1549934994859.3798828125,16,-10.8600000000,A01BBE,5,1549934973000
1549934994875.0000000000,16,-15.3900000000,A01BBE,5,1549934973000
1549934994890.6201171875,16,-19.8900000000,A01BBE,5,1549934973000
1549934994906.2500000000,16,-24.2500000000,A01BBE,5,1549934973000
1549934994921.8798828125,16,-28.4800000000,A01BBE,5,1549934973000
1549934994937.5000000000,16,-32.8400000000,A01BBE,5,1549934973000
1549934994953.1201171875,16,-37.7700000000,A01BBE,5,1549934973000
1549934994968.7500000000,16,-43.8000000000,A01BBE,5,1549934973000
1549934994984.3798828125,16,-51.2100000000,A01BBE,5,1549934973000
1549934995000.0000000000,16,-59.9200000000,A01BBE,5,1549934973000
1549934995015.6201171875,16,-69.2600000000,A01BBE,5,1549934973000
1549934995031.2500000000,16,-77.9800000000,A01BBE,5,1549934973000
1549934995046.8798828125,16,-84.5900000000,A01BBE,5,1549934973000
1549934995062.5000000000,16,-87.6600000000,A01BBE,5,1549934973000
1549934995078.1201171875,16,-86.3200000000,A01BBE,5,1549934973000
1549934995093.7500000000,16,-80.4700000000,A01BBE,5,1549934973000
1549934995109.3798828125,16,-70.8800000000,A01BBE,5,1549934973000
1549934995125.0000000000,16,-58.9800000000,A01BBE,5,1549934973000
1549934995140.6201171875,16,-46.3600000000,A01BBE,5,1549934973000
1549934995156.2500000000,16,-34.4100000000,A01BBE,5,1549934973000
1549934995171.8798828125,16,-23.9500000000,A01BBE,5,1549934973000
1549934995187.5000000000,16,-15.1500000000,A01BBE,5,1549934973000
1549934995203.1201171875,16,-7.7000000000,A01BBE,5,1549934973000
1549934995218.7500000000,16,-0.9900000000,A01BBE,5,1549934973000
1549934995234.3798828125,16,5.5300000000,A01BBE,5,1549934973000
1549934995250.0000000000,16,12.2100000000,A01BBE,5,1549934973000
1549934995265.6201171875,16,19.1600000000,A01BBE,5,1549934973000
1549934995281.2500000000,16,26.3000000000,A01BBE,5,1549934973000
1549934995296.8798828125,16,33.3300000000,A01BBE,5,1549934973000
1549934995312.5000000000,16,39.8800000000,A01BBE,5,1549934973000
1549934995328.1201171875,16,45.5100000000,A01BBE,5,1549934973000
1549934995343.7500000000,16,49.8000000000,A01BBE,5,1549934973000
1549934995359.3798828125,16,52.5300000000,A01BBE,5,1549934973000
1549934995375.0000000000,16,53.7100000000,A01BBE,5,1549934973000
1549934995390.6201171875,16,53.6900000000,A01BBE,5,1549934973000
1549934995406.2500000000,16,53.0100000000,A01BBE,5,1549934973000
1549934995421.8798828125,16,52.2600000000,A01BBE,5,1549934973000
1549934995437.5000000000,16,51.9000000000,A01BBE,5,1549934973000
1549934995453.1201171875,16,52.1500000000,A01BBE,5,1549934973000
1549934995468.7500000000,16,52.8800000000,A01BBE,5,1549934973000
1549934995484.3798828125,16,53.7600000000,A01BBE,5,1549934973000
1549934995500.0000000000,16,54.3600000000,A01BBE,5,1549934973000
1549934995515.6201171875,16,54.2800000000,A01BBE,5,1549934973000
1549934995531.2500000000,16,53.3300000000,A01BBE,5,1549934973000
1549934995546.8798828125,16,51.5400000000,A01BBE,5,1549934973000
1549934995562.5000000000,16,49.1400000000,A01BBE,5,1549934973000
1549934995578.1201171875,16,46.4700000000,A01BBE,5,1549934973000
1549934995593.7500000000,16,43.8800000000,A01BBE,5,1549934973000
1549934995609.3798828125,16,41.5700000000,A01BBE,5,1549934973000
1549934995625.0000000000,16,39.5600000000,A01BBE,5,1549934973000
1549934995640.6201171875,16,37.7100000000,A01BBE,5,1549934973000
1549934995656.2500000000,16,35.7700000000,A01BBE,5,1549934973000
1549934995671.8798828125,16,33.4800000000,A01BBE,5,1549934973000
1549934995687.5000000000,16,30.6700000000,A01BBE,5,1549934973000
1549934995703.1201171875,16,27.2600000000,A01BBE,5,1549934973000
1549934995718.7500000000,16,23.3200000000,A01BBE,5,1549934973000
1549934995734.3798828125,16,19.0900000000,A01BBE,5,1549934973000
1549934995750.0000000000,16,14.8800000000,A01BBE,5,1549934973000
1549934995765.6201171875,16,10.9700000000,A01BBE,5,1549934973000
1549934995781.2500000000,16,7.4600000000,A01BBE,5,1549934973000
1549934995796.8798828125,16,4.1800000000,A01BBE,5,1549934973000
1549934995812.5000000000,16,0.7500000000,A01BBE,5,1549934973000
1549934995828.1201171875,16,-3.2600000000,A01BBE,5,1549934973000
1549934995843.7500000000,16,-8.0800000000,A01BBE,5,1549934973000
1549934995859.3798828125,16,-13.6400000000,A01BBE,5,1549934973000
1549934995875.0000000000,16,-19.5800000000,A01BBE,5,1549934973000
1549934995890.6201171875,16,-25.4700000000,A01BBE,5,1549934973000
1549934995906.2500000000,16,-30.9600000000,A01BBE,5,1549934973000
1549934995921.8798828125,16,-36.0200000000,A01BBE,5,1549934973000
1549934995937.5000000000,16,-40.8600000000,A01BBE,5,1549934973000
1549934995953.1201171875,16,-45.9400000000,A01BBE,5,1549934973000
1549934995968.7500000000,16,-51.7400000000,A01BBE,5,1549934973000
1549934995984.3798828125,16,-58.6800000000,A01BBE,5,1549934973000
1549934996000.0000000000,16,-66.8300000000,A01BBE,5,1549934973000
1549934996015.6201171875,16,-75.7900000000,A01BBE,5,1549934973000
1549934996031.2500000000,16,-84.5100000000,A01BBE,5,1549934973000
1549934996046.8798828125,16,-91.4900000000,A01BBE,5,1549934973000
1549934996062.5000000000,16,-95.0800000000,A01BBE,5,1549934973000
1549934996078.1201171875,16,-94.0600000000,A01BBE,5,1549934973000
1549934996093.7500000000,16,-88.1300000000,A01BBE,5,1549934973000
1549934996109.3798828125,16,-78.0700000000,A01BBE,5,1549934973000
1549934996125.0000000000,16,-65.5100000000,A01BBE,5,1549934973000
1549934996140.6201171875,16,-52.3400000000,A01BBE,5,1549934973000
1549934996156.2500000000,16,-40.0900000000,A01BBE,5,1549934973000
1549934996171.8798828125,16,-29.5900000000,A01BBE,5,1549934973000
1549934996187.5000000000,16,-20.8500000000,A01BBE,5,1549934973000
1549934996203.1201171875,16,-13.4300000000,A01BBE,5,1549934973000
1549934996218.7500000000,16,-6.6600000000,A01BBE,5,1549934973000
1549934996234.3798828125,16,0E-10,A01BBE,5,1549934973000
1549934996250.0000000000,16,6.8800000000,A01BBE,5,1549934973000
1549934996265.6201171875,16,14.0900000000,A01BBE,5,1549934973000
1549934996281.2500000000,16,21.5900000000,A01BBE,5,1549934973000
1549934996296.8798828125,16,29.1400000000,A01BBE,5,1549934973000
1549934996312.5000000000,16,36.3800000000,A01BBE,5,1549934973000
1549934996328.1201171875,16,42.8200000000,A01BBE,5,1549934973000
1549934996343.7500000000,16,47.9600000000,A01BBE,5,1549934973000
1549934996359.3798828125,16,51.4500000000,A01BBE,5,1549934973000
1549934996375.0000000000,16,53.2200000000,A01BBE,5,1549934973000
1549934996390.6201171875,16,53.5700000000,A01BBE,5,1549934973000
1549934996406.2500000000,16,53.1000000000,A01BBE,5,1549934973000
1549934996421.8798828125,16,52.5100000000,A01BBE,5,1549934973000
1549934996437.5000000000,16,52.4100000000,A01BBE,5,1549934973000
1549934996453.1201171875,16,53.0300000000,A01BBE,5,1549934973000
1549934996468.7500000000,16,54.2200000000,A01BBE,5,1549934973000
1549934996484.3798828125,16,55.4600000000,A01BBE,5,1549934973000
1549934996500.0000000000,16,56.1300000000,A01BBE,5,1549934973000
1549934996515.6201171875,16,55.7900000000,A01BBE,5,1549934973000
1549934996531.2500000000,16,54.3300000000,A01BBE,5,1549934973000
1549934996546.8798828125,16,52.0200000000,A01BBE,5,1549934973000
1549934996562.5000000000,16,49.3200000000,A01BBE,5,1549934973000
1549934996578.1201171875,16,46.6900000000,A01BBE,5,1549934973000
1549934996593.7500000000,16,44.3400000000,A01BBE,5,1549934973000
1549934996609.3798828125,16,42.2300000000,A01BBE,5,1549934973000
1549934996625.0000000000,16,40.0900000000,A01BBE,5,1549934973000
1549934996640.6201171875,16,37.6500000000,A01BBE,5,1549934973000
1549934996656.2500000000,16,34.7700000000,A01BBE,5,1549934973000
1549934996671.8798828125,16,31.4800000000,A01BBE,5,1549934973000
1549934996687.5000000000,16,27.9500000000,A01BBE,5,1549934973000
1549934996703.1201171875,16,24.3500000000,A01BBE,5,1549934973000
1549934996718.7500000000,16,20.8200000000,A01BBE,5,1549934973000
1549934996734.3798828125,16,17.3800000000,A01BBE,5,1549934973000
1549934996750.0000000000,16,14.0200000000,A01BBE,5,1549934973000
1549934996765.6201171875,16,10.6300000000,A01BBE,5,1549934973000
1549934996781.2500000000,16,7.1000000000,A01BBE,5,1549934973000
1549934996796.8798828125,16,3.3000000000,A01BBE,5,1549934973000
1549934996812.5000000000,16,-0.9200000000,A01BBE,5,1549934973000
1549934996828.1201171875,16,-5.6700000000,A01BBE,5,1549934973000
1549934996843.7500000000,16,-10.9600000000,A01BBE,5,1549934973000
1549934996859.3798828125,16,-16.6300000000,A01BBE,5,1549934973000
1549934996875.0000000000,16,-22.4400000000,A01BBE,5,1549934973000
1549934996890.6201171875,16,-28.0700000000,A01BBE,5,1549934973000
1549934996906.2500000000,16,-33.2800000000,A01BBE,5,1549934973000
1549934996921.8798828125,16,-38.0900000000,A01BBE,5,1549934973000
1549934996937.5000000000,16,-42.7700000000,A01BBE,5,1549934973000
1549934996953.1201171875,16,-47.9000000000,A01BBE,5,1549934973000
1549934996968.7500000000,16,-54.0900000000,A01BBE,5,1549934973000
1549934996984.3798828125,16,-61.6900000000,A01BBE,5,1549934973000
1549934997000.0000000000,16,-70.4700000000,A01BBE,5,1549934973000
1549934997015.6201171875,16,-79.4700000000,A01BBE,5,1549934973000
1549934997031.2500000000,16,-87.0700000000,A01BBE,5,1549934973000
1549934997046.8798828125,16,-91.5000000000,A01BBE,5,1549934973000
1549934997062.5000000000,16,-91.3600000000,A01BBE,5,1549934973000
1549934997078.1201171875,16,-86.1500000000,A01BBE,5,1549934973000
1549934997093.7500000000,16,-76.4900000000,A01BBE,5,1549934973000
1549934997109.3798828125,16,-63.9000000000,A01BBE,5,1549934973000
1549934997125.0000000000,16,-50.2800000000,A01BBE,5,1549934973000
1549934997140.6201171875,16,-37.3500000000,A01BBE,5,1549934973000
1549934997156.2500000000,16,-26.1700000000,A01BBE,5,1549934973000
1549934997171.8798828125,16,-17.0300000000,A01BBE,5,1549934973000
1549934997187.5000000000,16,-9.6000000000,A01BBE,5,1549934973000
1549934997203.1201171875,16,-3.2400000000,A01BBE,5,1549934973000
1549934997218.7500000000,16,2.7300000000,A01BBE,5,1549934973000
1549934997234.3798828125,16,8.7800000000,A01BBE,5,1549934973000
1549934997250.0000000000,16,15.1300000000,A01BBE,5,1549934973000
1549934997265.6201171875,16,21.7700000000,A01BBE,5,1549934973000
1549934997281.2500000000,16,28.5100000000,A01BBE,5,1549934973000
1549934997296.8798828125,16,35.0400000000,A01BBE,5,1549934973000
1549934997312.5000000000,16,40.9600000000,A01BBE,5,1549934973000
1549934997328.1201171875,16,45.8600000000,A01BBE,5,1549934973000
1549934997343.7500000000,16,49.4100000000,A01BBE,5,1549934973000
1549934997359.3798828125,16,51.4400000000,A01BBE,5,1549934973000
1549934997375.0000000000,16,52.0500000000,A01BBE,5,1549934973000
1549934997390.6201171875,16,51.6200000000,A01BBE,5,1549934973000
1549934997406.2500000000,16,50.7700000000,A01BBE,5,1549934973000
1549934997421.8798828125,16,50.0800000000,A01BBE,5,1549934973000
1549934997437.5000000000,16,49.9800000000,A01BBE,5,1549934973000
1549934997453.1201171875,16,50.5400000000,A01BBE,5,1549934973000
1549934997468.7500000000,16,51.5100000000,A01BBE,5,1549934973000
1549934997484.3798828125,16,52.4000000000,A01BBE,5,1549934973000
1549934997500.0000000000,16,52.7400000000,A01BBE,5,1549934973000
1549934997515.6201171875,16,52.2100000000,A01BBE,5,1549934973000
1549934997531.2500000000,16,50.7500000000,A01BBE,5,1549934973000
1549934997546.8798828125,16,48.5500000000,A01BBE,5,1549934973000
1549934997562.5000000000,16,45.9100000000,A01BBE,5,1549934973000
1549934997578.1201171875,16,43.1300000000,A01BBE,5,1549934973000
1549934997593.7500000000,16,40.3700000000,A01BBE,5,1549934973000
1549934997609.3798828125,16,37.6600000000,A01BBE,5,1549934973000
1549934997625.0000000000,16,34.8900000000,A01BBE,5,1549934973000
1549934997640.6201171875,16,31.9400000000,A01BBE,5,1549934973000
1549934997656.2500000000,16,28.6900000000,A01BBE,5,1549934973000
1549934997671.8798828125,16,25.1400000000,A01BBE,5,1549934973000
1549934997687.5000000000,16,21.3800000000,A01BBE,5,1549934973000
1549934997703.1201171875,16,17.5900000000,A01BBE,5,1549934973000
1549934997718.7500000000,16,13.9300000000,A01BBE,5,1549934973000
1549934997734.3798828125,16,10.4800000000,A01BBE,5,1549934973000
1549934997750.0000000000,16,7.1800000000,A01BBE,5,1549934973000
1549934997765.6201171875,16,3.8600000000,A01BBE,5,1549934973000
1549934997781.2500000000,16,0.2900000000,A01BBE,5,1549934973000
1549934997796.8798828125,16,-3.7200000000,A01BBE,5,1549934973000
1549934997812.5000000000,16,-8.2400000000,A01BBE,5,1549934973000
1549934997828.1201171875,16,-13.2300000000,A01BBE,5,1549934973000
1549934997843.7500000000,16,-18.5900000000,A01BBE,5,1549934973000
1549934997859.3798828125,16,-24.1400000000,A01BBE,5,1549934973000
1549934997875.0000000000,16,-29.7200000000,A01BBE,5,1549934973000
1549934997890.6201171875,16,-35.2600000000,A01BBE,5,1549934973000
1549934997906.2500000000,16,-40.7300000000,A01BBE,5,1549934973000
1549934997921.8798828125,16,-46.3100000000,A01BBE,5,1549934973000
1549934997937.5000000000,16,-52.2900000000,A01BBE,5,1549934973000
1549934997953.1201171875,16,-59.0400000000,A01BBE,5,1549934973000
1549934997968.7500000000,16,-66.7700000000,A01BBE,5,1549934973000
1549934997984.3798828125,16,-75.2800000000,A01BBE,5,1549934973000
1549934998000.0000000000,16,-83.7000000000,A01BBE,5,1549934973000
1549934998015.6201171875,16,-90.5900000000,A01BBE,5,1549934973000
1549934998031.2500000000,16,-94.3000000000,A01BBE,5,1549934973000
1549934998046.8798828125,16,-93.4600000000,A01BBE,5,1549934973000
1549934998062.5000000000,16,-87.6200000000,A01BBE,5,1549934973000
1549934998078.1201171875,16,-77.4300000000,A01BBE,5,1549934973000
1549934998093.7500000000,16,-64.4700000000,A01BBE,5,1549934973000
1549934998109.3798828125,16,-50.7000000000,A01BBE,5,1549934973000
1549934998125.0000000000,16,-37.8300000000,A01BBE,5,1549934973000
1549934998140.6201171875,16,-26.8300000000,A01BBE,5,1549934973000
1549934998156.2500000000,16,-17.8500000000,A01BBE,5,1549934973000
1549934998171.8798828125,16,-10.4100000000,A01BBE,5,1549934973000
1549934998187.5000000000,16,-3.7700000000,A01BBE,5,1549934973000
1549934998203.1201171875,16,2.6600000000,A01BBE,5,1549934973000
1549934998218.7500000000,16,9.1900000000,A01BBE,5,1549934973000
1549934998234.3798828125,16,15.8400000000,A01BBE,5,1549934973000
1549934998250.0000000000,16,22.4000000000,A01BBE,5,1549934973000
1549934998265.6201171875,16,28.6100000000,A01BBE,5,1549934973000
1549934998281.2500000000,16,34.2300000000,A01BBE,5,1549934973000
1549934998296.8798828125,16,39.0200000000,A01BBE,5,1549934973000
1549934998312.5000000000,16,42.8500000000,A01BBE,5,1549934973000
1549934998328.1201171875,16,45.6400000000,A01BBE,5,1549934973000
1549934998343.7500000000,16,47.4100000000,A01BBE,5,1549934973000
1549934998359.3798828125,16,48.3100000000,A01BBE,5,1549934973000
1549934998375.0000000000,16,48.6000000000,A01BBE,5,1549934973000
1549934998390.6201171875,16,48.6300000000,A01BBE,5,1549934973000
1549934998406.2500000000,16,48.7200000000,A01BBE,5,1549934973000
1549934998421.8798828125,16,49.0900000000,A01BBE,5,1549934973000
1549934998437.5000000000,16,49.7500000000,A01BBE,5,1549934973000
1549934998453.1201171875,16,50.5400000000,A01BBE,5,1549934973000
1549934998468.7500000000,16,51.1300000000,A01BBE,5,1549934973000
1549934998484.3798828125,16,51.1700000000,A01BBE,5,1549934973000
1549934998500.0000000000,16,50.4100000000,A01BBE,5,1549934973000
1549934998515.6201171875,16,48.8100000000,A01BBE,5,1549934973000
1549934998531.2500000000,16,46.5200000000,A01BBE,5,1549934973000
1549934998546.8798828125,16,43.8700000000,A01BBE,5,1549934973000
1549934998562.5000000000,16,41.2300000000,A01BBE,5,1549934973000
1549934998578.1201171875,16,38.8400000000,A01BBE,5,1549934973000
1549934998593.7500000000,16,36.7200000000,A01BBE,5,1549934973000
1549934998609.3798828125,16,34.6700000000,A01BBE,5,1549934973000
1549934998625.0000000000,16,32.3400000000,A01BBE,5,1549934973000
1549934998640.6201171875,16,29.4400000000,A01BBE,5,1549934973000
1549934998656.2500000000,16,25.8900000000,A01BBE,5,1549934973000
1549934998671.8798828125,16,21.7900000000,A01BBE,5,1549934973000
1549934998687.5000000000,16,17.4600000000,A01BBE,5,1549934973000
1549934998703.1201171875,16,13.2200000000,A01BBE,5,1549934973000
1549934998718.7500000000,16,9.2300000000,A01BBE,5,1549934973000
1549934998734.3798828125,16,5.4800000000,A01BBE,5,1549934973000
1549934998750.0000000000,16,1.7400000000,A01BBE,5,1549934973000
1549934998765.6201171875,16,-2.2600000000,A01BBE,5,1549934973000
1549934998781.2500000000,16,-6.7300000000,A01BBE,5,1549934973000
1549934998796.8798828125,16,-11.7100000000,A01BBE,5,1549934973000
1549934998812.5000000000,16,-17.0800000000,A01BBE,5,1549934973000
1549934998828.1201171875,16,-22.6000000000,A01BBE,5,1549934973000
1549934998843.7500000000,16,-28.0300000000,A01BBE,5,1549934973000
1549934998859.3798828125,16,-33.1600000000,A01BBE,5,1549934973000
1549934998875.0000000000,16,-37.9500000000,A01BBE,5,1549934973000
1549934998890.6201171875,16,-42.5700000000,A01BBE,5,1549934973000
1549934998906.2500000000,16,-47.3800000000,A01BBE,5,1549934973000
1549934998921.8798828125,16,-52.9100000000,A01BBE,5,1549934973000
1549934998937.5000000000,16,-59.6200000000,A01BBE,5,1549934973000
1549934998953.1201171875,16,-67.6900000000,A01BBE,5,1549934973000
1549934998968.7500000000,16,-76.7600000000,A01BBE,5,1549934973000
1549934998984.3798828125,16,-85.7700000000,A01BBE,5,1549934973000
1549934999000.0000000000,16,-93.1100000000,A01BBE,5,1549934973000
1549934999015.6201171875,16,-97.0100000000,A01BBE,5,1549934973000
1549934999031.2500000000,16,-96.1200000000,A01BBE,5,1549934973000
1549934999046.8798828125,16,-90.0000000000,A01BBE,5,1549934973000
1549934999062.5000000000,16,-79.3900000000,A01BBE,5,1549934973000
1549934999078.1201171875,16,-65.9800000000,A01BBE,5,1549934973000
1549934999093.7500000000,16,-51.8600000000,A01BBE,5,1549934973000
1549934999109.3798828125,16,-38.8300000000,A01BBE,5,1549934973000
1549934999125.0000000000,16,-27.8600000000,A01BBE,5,1549934973000
1549934999140.6201171875,16,-19.0400000000,A01BBE,5,1549934973000
1549934999156.2500000000,16,-11.7700000000,A01BBE,5,1549934973000
1549934999171.8798828125,16,-5.1900000000,A01BBE,5,1549934973000
1549934999187.5000000000,16,1.4100000000,A01BBE,5,1549934973000
1549934999203.1201171875,16,8.3400000000,A01BBE,5,1549934973000
1549934999218.7500000000,16,15.5900000000,A01BBE,5,1549934973000
1549934999234.3798828125,16,22.8900000000,A01BBE,5,1549934973000
1549934999250.0000000000,16,29.9300000000,A01BBE,5,1549934973000
1549934999265.6201171875,16,36.3900000000,A01BBE,5,1549934973000
1549934999281.2500000000,16,42.0300000000,A01BBE,5,1549934973000
1549934999296.8798828125,16,46.6100000000,A01BBE,5,1549934973000
1549934999312.5000000000,16,50.0200000000,A01BBE,5,1549934973000
1549934999328.1201171875,16,52.2100000000,A01BBE,5,1549934973000
1549934999343.7500000000,16,53.3300000000,A01BBE,5,1549934973000
1549934999359.3798828125,16,53.7000000000,A01BBE,5,1549934973000
1549934999375.0000000000,16,53.6800000000,A01BBE,5,1549934973000
1549934999390.6201171875,16,53.6600000000,A01BBE,5,1549934973000
1549934999406.2500000000,16,53.8500000000,A01BBE,5,1549934973000
1549934999421.8798828125,16,54.3000000000,A01BBE,5,1549934973000
1549934999437.5000000000,16,54.8600000000,A01BBE,5,1549934973000
1549934999453.1201171875,16,55.2500000000,A01BBE,5,1549934973000
1549934999468.7500000000,16,55.1400000000,A01BBE,5,1549934973000
1549934999484.3798828125,16,54.2600000000,A01BBE,5,1549934973000
1549934999500.0000000000,16,52.5100000000,A01BBE,5,1549934973000
1549934999515.6201171875,16,49.9800000000,A01BBE,5,1549934973000
1549934999531.2500000000,16,46.9600000000,A01BBE,5,1549934973000
1549934999546.8798828125,16,43.8100000000,A01BBE,5,1549934973000
1549934999562.5000000000,16,40.8800000000,A01BBE,5,1549934973000
1549934999578.1201171875,16,38.3100000000,A01BBE,5,1549934973000
1549934999593.7500000000,16,36.0400000000,A01BBE,5,1549934973000
1549934999609.3798828125,16,33.8200000000,A01BBE,5,1549934973000
1549934999625.0000000000,16,31.3400000000,A01BBE,5,1549934973000
1549934999640.6201171875,16,28.3700000000,A01BBE,5,1549934973000
1549934999656.2500000000,16,24.8700000000,A01BBE,5,1549934973000
1549934999671.8798828125,16,20.9900000000,A01BBE,5,1549934973000
1549934999687.5000000000,16,17.0200000000,A01BBE,5,1549934973000
1549934999703.1201171875,16,13.2300000000,A01BBE,5,1549934973000
1549934999718.7500000000,16,9.7500000000,A01BBE,5,1549934973000
1549934999734.3798828125,16,6.4900000000,A01BBE,5,1549934973000
1549934999750.0000000000,16,3.1900000000,A01BBE,5,1549934973000
1549934999765.6201171875,16,-0.5000000000,A01BBE,5,1549934973000
1549934999781.2500000000,16,-4.8800000000,A01BBE,5,1549934973000
1549934999796.8798828125,16,-10.0700000000,A01BBE,5,1549934973000
1549934999812.5000000000,16,-15.9000000000,A01BBE,5,1549934973000
1549934999828.1201171875,16,-21.9700000000,A01BBE,5,1549934973000
1549934999843.7500000000,16,-27.8600000000,A01BBE,5,1549934973000
1549934999859.3798828125,16,-33.2500000000,A01BBE,5,1549934973000
1549934999875.0000000000,16,-38.1200000000,A01BBE,5,1549934973000
1549934999890.6201171875,16,-42.7300000000,A01BBE,5,1549934973000
1549934999906.2500000000,16,-47.5700000000,A01BBE,5,1549934973000
1549934999921.8798828125,16,-53.1400000000,A01BBE,5,1549934973000
1549934999937.5000000000,16,-59.8100000000,A01BBE,5,1549934973000
1549934999953.1201171875,16,-67.6200000000,A01BBE,5,1549934973000
1549934999968.7500000000,16,-76.1100000000,A01BBE,5,1549934973000
1549934999984.3798828125,16,-84.3300000000,A01BBE,5,1549934973000
1549935000000.0000000000,16,-90.9200000000,A01BBE,5,1549934973000
1549935000015.6201171875,16,-94.4100000000,A01BBE,5,1549934973000
1549935000031.2500000000,16,-93.6200000000,A01BBE,5,1549934973000
1549935000046.8798828125,16,-88.0500000000,A01BBE,5,1549934973000
1549935000062.5000000000,16,-78.1500000000,A01BBE,5,1549934973000
1549935000078.1201171875,16,-65.2100000000,A01BBE,5,1549934973000
1549935000093.7500000000,16,-51.0100000000,A01BBE,5,1549934973000
1549935000109.3798828125,16,-37.2800000000,A01BBE,5,1549934973000
1549935000125.0000000000,16,-25.2000000000,A01BBE,5,1549934973000
1549935000140.6201171875,16,-15.2800000000,A01BBE,5,1549934973000
1549935000156.2500000000,16,-7.2800000000,A01BBE,5,1549934973000
1549935000171.8798828125,16,-0.5600000000,A01BBE,5,1549934973000
1549935000187.5000000000,16,5.6400000000,A01BBE,5,1549934973000
1549935000203.1201171875,16,11.9200000000,A01BBE,5,1549934973000
1549935000218.7500000000,16,18.5700000000,A01BBE,5,1549934973000
1549935000234.3798828125,16,25.5600000000,A01BBE,5,1549934973000
1549935000250.0000000000,16,32.5800000000,A01BBE,5,1549934973000
1549935000265.6201171875,16,39.1500000000,A01BBE,5,1549934973000
1549935000281.2500000000,16,44.7900000000,A01BBE,5,1549934973000
1549935000296.8798828125,16,49.1200000000,A01BBE,5,1549934973000
1549935000312.5000000000,16,51.9500000000,A01BBE,5,1549934973000
1549935000328.1201171875,16,53.3300000000,A01BBE,5,1549934973000
1549935000343.7500000000,16,53.5300000000,A01BBE,5,1549934973000
1549935000359.3798828125,16,52.9300000000,A01BBE,5,1549934973000
1549935000375.0000000000,16,51.9800000000,A01BBE,5,1549934973000
1549935000390.6201171875,16,51.1000000000,A01BBE,5,1549934973000
1549935000406.2500000000,16,50.6100000000,A01BBE,5,1549934973000
1549935000421.8798828125,16,50.6400000000,A01BBE,5,1549934973000
1549935000437.5000000000,16,51.0400000000,A01BBE,5,1549934973000
1549935000453.1201171875,16,51.5000000000,A01BBE,5,1549934973000
1549935000468.7500000000,16,51.5700000000,A01BBE,5,1549934973000
1549935000484.3798828125,16,50.9000000000,A01BBE,5,1549934973000
1549935000500.0000000000,16,49.3300000000,A01BBE,5,1549934973000
1549935000515.6201171875,16,46.9700000000,A01BBE,5,1549934973000
1549935000531.2500000000,16,44.1100000000,A01BBE,5,1549934973000
1549935000546.8798828125,16,41.1300000000,A01BBE,5,1549934973000
1549935000562.5000000000,16,38.3200000000,A01BBE,5,1549934973000
1549935000578.1201171875,16,35.7600000000,A01BBE,5,1549934973000
1549935000593.7500000000,16,33.3500000000,A01BBE,5,1549934973000
1549935000609.3798828125,16,30.8600000000,A01BBE,5,1549934973000
1549935000625.0000000000,16,28.0800000000,A01BBE,5,1549934973000
1549935000640.6201171875,16,24.8600000000,A01BBE,5,1549934973000
1549935000656.2500000000,16,21.2200000000,A01BBE,5,1549934973000
1549935000671.8798828125,16,17.3100000000,A01BBE,5,1549934973000
1549935000687.5000000000,16,13.3900000000,A01BBE,5,1549934973000
1549935000703.1201171875,16,9.6600000000,A01BBE,5,1549934973000
1549935000718.7500000000,16,6.1700000000,A01BBE,5,1549934973000
1549935000734.3798828125,16,2.8300000000,A01BBE,5,1549934973000
1549935000750.0000000000,16,-0.6600000000,A01BBE,5,1549934973000
1549935000765.6201171875,16,-4.6300000000,A01BBE,5,1549934973000
1549935000781.2500000000,16,-9.2900000000,A01BBE,5,1549934973000
1549935000796.8798828125,16,-14.6100000000,A01BBE,5,1549934973000
1549935000812.5000000000,16,-20.3600000000,A01BBE,5,1549934973000
1549935000828.1201171875,16,-26.1200000000,A01BBE,5,1549934973000
1549935000843.7500000000,16,-31.4700000000,A01BBE,5,1549934973000
1549935000859.3798828125,16,-36.2100000000,A01BBE,5,1549934973000
1549935000875.0000000000,16,-40.3700000000,A01BBE,5,1549934973000
1549935000890.6201171875,16,-44.3900000000,A01BBE,5,1549934973000
1549935000906.2500000000,16,-48.9000000000,A01BBE,5,1549934973000
1549935000921.8798828125,16,-54.5400000000,A01BBE,5,1549934973000
1549935000937.5000000000,16,-61.6600000000,A01BBE,5,1549934973000
1549935000953.1201171875,16,-70.0500000000,A01BBE,5,1549934973000
1549935000968.7500000000,16,-78.8700000000,A01BBE,5,1549934973000
1549935000984.3798828125,16,-86.6700000000,A01BBE,5,1549934973000
1549935001000.0000000000,16,-91.8900000000,A01BBE,5,1549934973000
1549935001015.6201171875,16,-93.1400000000,A01BBE,5,1549934973000
1549935001031.2500000000,16,-89.7100000000,A01BBE,5,1549934973000
1549935001046.8798828125,16,-81.7600000000,A01BBE,5,1549934973000
1549935001062.5000000000,16,-70.2700000000,A01BBE,5,1549934973000
1549935001078.1201171875,16,-56.7600000000,A01BBE,5,1549934973000
1549935001093.7500000000,16,-42.9000000000,A01BBE,5,1549934973000
1549935001109.3798828125,16,-30.1000000000,A01BBE,5,1549934973000
1549935001125.0000000000,16,-19.2600000000,A01BBE,5,1549934973000
1549935001140.6201171875,16,-10.6100000000,A01BBE,5,1549934973000
1549935001156.2500000000,16,-3.8300000000,A01BBE,5,1549934973000
1549935001171.8798828125,16,1.7800000000,A01BBE,5,1549934973000
1549935001187.5000000000,16,7.0400000000,A01BBE,5,1549934973000
1549935001203.1201171875,16,12.6000000000,A01BBE,5,1549934973000
1549935001218.7500000000,16,18.7800000000,A01BBE,5,1549934973000
1549935001234.3798828125,16,25.4500000000,A01BBE,5,1549934973000
1549935001250.0000000000,16,32.1400000000,A01BBE,5,1549934973000
1549935001265.6201171875,16,38.1800000000,A01BBE,5,1549934973000
1549935001281.2500000000,16,42.9700000000,A01BBE,5,1549934973000
1549935001296.8798828125,16,46.2200000000,A01BBE,5,1549934973000
1549935001312.5000000000,16,47.9400000000,A01BBE,5,1549934973000
1549935001328.1201171875,16,48.4500000000,A01BBE,5,1549934973000
1549935001343.7500000000,16,48.2100000000,A01BBE,5,1549934973000
1549935001359.3798828125,16,47.6100000000,A01BBE,5,1549934973000
1549935001375.0000000000,16,46.8900000000,A01BBE,5,1549934973000
1549935001390.6201171875,16,46.1800000000,A01BBE,5,1549934973000
1549935001406.2500000000,16,45.5300000000,A01BBE,5,1549934973000
1549935001421.8798828125,16,44.9600000000,A01BBE,5,1549934973000
1549935001437.5000000000,16,44.4600000000,A01BBE,5,1549934973000
1549935001453.1201171875,16,43.9500000000,A01BBE,5,1549934973000
1549935001468.7500000000,16,43.2600000000,A01BBE,5,1549934973000
1549935001484.3798828125,16,42.1200000000,A01BBE,5,1549934973000
1549935001500.0000000000,16,40.3400000000,A01BBE,5,1549934973000
1549935001515.6201171875,16,37.8700000000,A01BBE,5,1549934973000
1549935001531.2500000000,16,34.8500000000,A01BBE,5,1549934973000
1549935001546.8798828125,16,31.5900000000,A01BBE,5,1549934973000
1549935001562.5000000000,16,28.4200000000,A01BBE,5,1549934973000
1549935001578.1201171875,16,25.4900000000,A01BBE,5,1549934973000
1549935001593.7500000000,16,22.7600000000,A01BBE,5,1549934973000
1549935001609.3798828125,16,20.0100000000,A01BBE,5,1549934973000
1549935001625.0000000000,16,16.9400000000,A01BBE,5,1549934973000
1549935001640.6201171875,16,13.4100000000,A01BBE,5,1549934973000
1549935001656.2500000000,16,9.4100000000,A01BBE,5,1549934973000
1549935001671.8798828125,16,5.1400000000,A01BBE,5,1549934973000
1549935001687.5000000000,16,0.8100000000,A01BBE,5,1549934973000
1549935001703.1201171875,16,-3.4800000000,A01BBE,5,1549934973000
1549935001718.7500000000,16,-7.7600000000,A01BBE,5,1549934973000
