timestamp,pid,value,device_serial,device_number,entry_time
1553843647000.0000000000,32,0E-10,A01A3A,5,1553843647000
1553843647015.6201171875,32,0E-10,A01A3A,5,1553843647000
1553843647031.2500000000,32,0E-10,A01A3A,5,1553843647000
1553843647046.8798828125,32,0E-10,A01A3A,5,1553843647000
1553843647062.5000000000,32,0E-10,A01A3A,5,1553843647000
1553843647078.1201171875,32,0E-10,A01A3A,5,1553843647000
1553843647093.7500000000,32,0E-10,A01A3A,5,1553843647000
1553843647109.3798828125,32,0E-10,A01A3A,5,1553843647000
1553843647125.0000000000,32,0E-10,A01A3A,5,1553843647000
1553843647140.6201171875,32,0E-10,A01A3A,5,1553843647000
1553843647156.2500000000,32,0E-10,A01A3A,5,1553843647000
1553843647171.8798828125,32,0.0100000000,A01A3A,5,1553843647000
1553843647187.5000000000,32,0.0100000000,A01A3A,5,1553843647000
1553843647203.1201171875,32,0E-10,A01A3A,5,1553843647000
1553843647218.7500000000,32,-0.0300000000,A01A3A,5,1553843647000
1553843647234.3798828125,32,-0.0500000000,A01A3A,5,1553843647000
1553843647250.0000000000,32,-0.0500000000,A01A3A,5,1553843647000
1553843647265.6201171875,32,0E-10,A01A3A,5,1553843647000
1553843647281.2500000000,32,0.1300000000,A01A3A,5,1553843647000
1553843647296.8798828125,32,0.3600000000,A01A3A,5,1553843647000
1553843647312.5000000000,32,0.6600000000,A01A3A,5,1553843647000
1553843647328.1201171875,32,1.0100000000,A01A3A,5,1553843647000
1553843647343.7500000000,32,1.3700000000,A01A3A,5,1553843647000
1553843647359.3798828125,32,1.7200000000,A01A3A,5,1553843647000
1553843647375.0000000000,32,2.0600000000,A01A3A,5,1553843647000
1553843647390.6201171875,32,2.4000000000,A01A3A,5,1553843647000
1553843647406.2500000000,32,2.7900000000,A01A3A,5,1553843647000
1553843647421.8798828125,32,3.2400000000,A01A3A,5,1553843647000
1553843647437.5000000000,32,3.8000000000,A01A3A,5,1553843647000
1553843647453.1201171875,32,4.4200000000,A01A3A,5,1553843647000
1553843647468.7500000000,32,5.0600000000,A01A3A,5,1553843647000
1553843647484.3798828125,32,5.6600000000,A01A3A,5,1553843647000
1553843647500.0000000000,32,6.2000000000,A01A3A,5,1553843647000
1553843647515.6201171875,32,6.6800000000,A01A3A,5,1553843647000
1553843647531.2500000000,32,7.1500000000,A01A3A,5,1553843647000
1553843647546.8798828125,32,7.6800000000,A01A3A,5,1553843647000
1553843647562.5000000000,32,8.3100000000,A01A3A,5,1553843647000
1553843647578.1201171875,32,9.1400000000,A01A3A,5,1553843647000
1553843647593.7500000000,32,10.0900000000,A01A3A,5,1553843647000
1553843647609.3798828125,32,11.0400000000,A01A3A,5,1553843647000
1553843647625.0000000000,32,11.8800000000,A01A3A,5,1553843647000
1553843647640.6201171875,32,12.5600000000,A01A3A,5,1553843647000
1553843647656.2500000000,32,13.1400000000,A01A3A,5,1553843647000
1553843647671.8798828125,32,13.7600000000,A01A3A,5,1553843647000
1553843647687.5000000000,32,14.6500000000,A01A3A,5,1553843647000
1553843647703.1201171875,32,15.9600000000,A01A3A,5,1553843647000
1553843647718.7500000000,32,17.9100000000,A01A3A,5,1553843647000
1553843647734.3798828125,32,20.3200000000,A01A3A,5,1553843647000
1553843647750.0000000000,32,22.9000000000,A01A3A,5,1553843647000
1553843647765.6201171875,32,25.3800000000,A01A3A,5,1553843647000
1553843647781.2500000000,32,27.5800000000,A01A3A,5,1553843647000
1553843647796.8798828125,32,29.5700000000,A01A3A,5,1553843647000
1553843647812.5000000000,32,31.6800000000,A01A3A,5,1553843647000
1553843647828.1201171875,32,34.3200000000,A01A3A,5,1553843647000
1553843647843.7500000000,32,37.8100000000,A01A3A,5,1553843647000
1553843647859.3798828125,32,42.5400000000,A01A3A,5,1553843647000
1553843647875.0000000000,32,48.1500000000,A01A3A,5,1553843647000
1553843647890.6201171875,32,54.1000000000,A01A3A,5,1553843647000
1553843647906.2500000000,32,59.8300000000,A01A3A,5,1553843647000
1553843647921.8798828125,32,64.9700000000,A01A3A,5,1553843647000
1553843647937.5000000000,32,69.5800000000,A01A3A,5,1553843647000
1553843647953.1201171875,32,74.1400000000,A01A3A,5,1553843647000
1553843647968.7500000000,32,79.3400000000,A01A3A,5,1553843647000
1553843647984.3798828125,32,85.7100000000,A01A3A,5,1553843647000
1553843648000.0000000000,32,93.7600000000,A01A3A,5,1553843647000
1553843648015.6201171875,32,103.0000000000,A01A3A,5,1553843647000
1553843648031.2500000000,32,112.6200000000,A01A3A,5,1553843647000
1553843648046.8798828125,32,121.7300000000,A01A3A,5,1553843647000
1553843648062.5000000000,32,129.7700000000,A01A3A,5,1553843647000
1553843648078.1201171875,32,136.7500000000,A01A3A,5,1553843647000
1553843648093.7500000000,32,143.3000000000,A01A3A,5,1553843647000
1553843648109.3798828125,32,150.7500000000,A01A3A,5,1553843647000
1553843648125.0000000000,32,157.7700000000,A01A3A,5,1553843647000
1553843648140.6201171875,32,166.6400000000,A01A3A,5,1553843647000
1553843648156.2500000000,32,177.9500000000,A01A3A,5,1553843647000
1553843648171.8798828125,32,191.7900000000,A01A3A,5,1553843647000
1553843648187.5000000000,32,206.9700000000,A01A3A,5,1553843647000
1553843648203.1201171875,32,220.5700000000,A01A3A,5,1553843647000
1553843648218.7500000000,32,228.2500000000,A01A3A,5,1553843647000
1553843648234.3798828125,32,225.3600000000,A01A3A,5,1553843647000
1553843648250.0000000000,32,208.5300000000,A01A3A,5,1553843647000
1553843648265.6201171875,32,176.8700000000,A01A3A,5,1553843647000
1553843648281.2500000000,32,132.7600000000,A01A3A,5,1553843647000
1553843648296.8798828125,32,80.0500000000,A01A3A,5,1553843647000
1553843648312.5000000000,32,23.0700000000,A01A3A,5,1553843647000
1553843648328.1201171875,32,-34.9400000000,A01A3A,5,1553843647000
1553843648343.7500000000,32,-92.4400000000,A01A3A,5,1553843647000
1553843648359.3798828125,32,-149.1600000000,A01A3A,5,1553843647000
1553843648375.0000000000,32,-205.2300000000,A01A3A,5,1553843647000
1553843648390.6201171875,32,-260.3700000000,A01A3A,5,1553843647000
1553843648406.2500000000,32,-313.7400000000,A01A3A,5,1553843647000
1553843648421.8798828125,32,-363.8700000000,A01A3A,5,1553843647000
1553843648437.5000000000,32,-409.8300000000,A01A3A,5,1553843647000
1553843648453.1201171875,32,-450.9100000000,A01A3A,5,1553843647000
1553843648468.7500000000,32,-486.5000000000,A01A3A,5,1553843647000
1553843648484.3798828125,32,-515.7400000000,A01A3A,5,1553843647000
1553843648500.0000000000,32,-537.2300000000,A01A3A,5,1553843647000
1553843648515.6201171875,32,-549.2200000000,A01A3A,5,1553843647000
1553843648531.2500000000,32,-549.9600000000,A01A3A,5,1553843647000
1553843648546.8798828125,32,-538.3600000000,A01A3A,5,1553843647000
1553843648562.5000000000,32,-514.2000000000,A01A3A,5,1553843647000
1553843648578.1201171875,32,-478.6500000000,A01A3A,5,1553843647000
1553843648593.7500000000,32,-433.8500000000,A01A3A,5,1553843647000
1553843648609.3798828125,32,-382.4000000000,A01A3A,5,1553843647000
1553843648625.0000000000,32,-326.9400000000,A01A3A,5,1553843647000
1553843648640.6201171875,32,-269.7300000000,A01A3A,5,1553843647000
1553843648656.2500000000,32,-212.4900000000,A01A3A,5,1553843647000
1553843648671.8798828125,32,-156.4800000000,A01A3A,5,1553843647000
1553843648687.5000000000,32,-102.7200000000,A01A3A,5,1553843647000
1553843648703.1201171875,32,-52.0900000000,A01A3A,5,1553843647000
1553843648718.7500000000,32,-5.5700000000,A01A3A,5,1553843647000
1553843648734.3798828125,32,35.9800000000,A01A3A,5,1553843647000
1553843648750.0000000000,32,71.8800000000,A01A3A,5,1553843647000
1553843648765.6201171875,32,101.8700000000,A01A3A,5,1553843647000
1553843648781.2500000000,32,126.0900000000,A01A3A,5,1553843647000
1553843648796.8798828125,32,145.0300000000,A01A3A,5,1553843647000
1553843648812.5000000000,32,159.4100000000,A01A3A,5,1553843647000
1553843648828.1201171875,32,169.9400000000,A01A3A,5,1553843647000
1553843648843.7500000000,32,177.2400000000,A01A3A,5,1553843647000
1553843648859.3798828125,32,181.7000000000,A01A3A,5,1553843647000
1553843648875.0000000000,32,183.6100000000,A01A3A,5,1553843647000
1553843648890.6201171875,32,183.2000000000,A01A3A,5,1553843647000
1553843648906.2500000000,32,180.7400000000,A01A3A,5,1553843647000
1553843648921.8798828125,32,176.5700000000,A01A3A,5,1553843647000
1553843648937.5000000000,32,171.1200000000,A01A3A,5,1553843647000
1553843648953.1201171875,32,164.7800000000,A01A3A,5,1553843647000
1553843648968.7500000000,32,157.9000000000,A01A3A,5,1553843647000
1553843648984.3798828125,32,150.7300000000,A01A3A,5,1553843647000
1553843649000.0000000000,32,143.4100000000,A01A3A,5,1553843647000
1553843649015.6201171875,32,136.0200000000,A01A3A,5,1553843647000
1553843649031.2500000000,32,128.5900000000,A01A3A,5,1553843647000
1553843649046.8798828125,32,121.1700000000,A01A3A,5,1553843647000
1553843649062.5000000000,32,113.8200000000,A01A3A,5,1553843647000
1553843649078.1201171875,32,106.6100000000,A01A3A,5,1553843647000
1553843649093.7500000000,32,99.6200000000,A01A3A,5,1553843647000
1553843649109.3798828125,32,92.8900000000,A01A3A,5,1553843647000
1553843649125.0000000000,32,86.4700000000,A01A3A,5,1553843647000
1553843649140.6201171875,32,80.3700000000,A01A3A,5,1553843647000
1553843649156.2500000000,32,74.6000000000,A01A3A,5,1553843647000
1553843649171.8798828125,32,69.1700000000,A01A3A,5,1553843647000
1553843649187.5000000000,32,64.0900000000,A01A3A,5,1553843647000
1553843649203.1201171875,32,59.3700000000,A01A3A,5,1553843647000
1553843649218.7500000000,32,55.0100000000,A01A3A,5,1553843647000
1553843649234.3798828125,32,51.0300000000,A01A3A,5,1553843647000
1553843649250.0000000000,32,47.4200000000,A01A3A,5,1553843647000
1553843649265.6201171875,32,44.1700000000,A01A3A,5,1553843647000
1553843649281.2500000000,32,41.2800000000,A01A3A,5,1553843647000
1553843649296.8798828125,32,38.7500000000,A01A3A,5,1553843647000
1553843649312.5000000000,32,36.5600000000,A01A3A,5,1553843647000
1553843649328.1201171875,32,34.7100000000,A01A3A,5,1553843647000
1553843649343.7500000000,32,33.2000000000,A01A3A,5,1553843647000
1553843649359.3798828125,32,32.0100000000,A01A3A,5,1553843647000
1553843649375.0000000000,32,31.1500000000,A01A3A,5,1553843647000
1553843649390.6201171875,32,30.6200000000,A01A3A,5,1553843647000
1553843649406.2500000000,32,30.4100000000,A01A3A,5,1553843647000
1553843649421.8798828125,32,30.5100000000,A01A3A,5,1553843647000
1553843649437.5000000000,32,30.8900000000,A01A3A,5,1553843647000
1553843649453.1201171875,32,31.5200000000,A01A3A,5,1553843647000
1553843649468.7500000000,32,32.3200000000,A01A3A,5,1553843647000
1553843649484.3798828125,32,33.2100000000,A01A3A,5,1553843647000
1553843649500.0000000000,32,34.0600000000,A01A3A,5,1553843647000
1553843649515.6201171875,32,34.7400000000,A01A3A,5,1553843647000
1553843649531.2500000000,32,35.0800000000,A01A3A,5,1553843647000
1553843649546.8798828125,32,34.9000000000,A01A3A,5,1553843647000
1553843649562.5000000000,32,34.0600000000,A01A3A,5,1553843647000
1553843649578.1201171875,32,32.4300000000,A01A3A,5,1553843647000
1553843649593.7500000000,32,29.9300000000,A01A3A,5,1553843647000
1553843649609.3798828125,32,26.5500000000,A01A3A,5,1553843647000
1553843649625.0000000000,32,22.3600000000,A01A3A,5,1553843647000
1553843649640.6201171875,32,17.4200000000,A01A3A,5,1553843647000
1553843649656.2500000000,32,11.9400000000,A01A3A,5,1553843647000
1553843649671.8798828125,32,6.1500000000,A01A3A,5,1553843647000
1553843649687.5000000000,32,0.2900000000,A01A3A,5,1553843647000
1553843649703.1201171875,32,-5.3700000000,A01A3A,5,1553843647000
1553843649718.7500000000,32,-10.5700000000,A01A3A,5,1553843647000
1553843649734.3798828125,32,-15.1200000000,A01A3A,5,1553843647000
1553843649750.0000000000,32,-18.8700000000,A01A3A,5,1553843647000
1553843649765.6201171875,32,-21.7100000000,A01A3A,5,1553843647000
1553843649781.2500000000,32,-23.6200000000,A01A3A,5,1553843647000
1553843649796.8798828125,32,-24.6100000000,A01A3A,5,1553843647000
1553843649812.5000000000,32,-24.7900000000,A01A3A,5,1553843647000
1553843649828.1201171875,32,-24.2600000000,A01A3A,5,1553843647000
1553843649843.7500000000,32,-23.1400000000,A01A3A,5,1553843647000
1553843649859.3798828125,32,-21.6000000000,A01A3A,5,1553843647000
1553843649875.0000000000,32,-19.7500000000,A01A3A,5,1553843647000
1553843649890.6201171875,32,-17.6900000000,A01A3A,5,1553843647000
1553843649906.2500000000,32,-15.5100000000,A01A3A,5,1553843647000
1553843649921.8798828125,32,-13.2500000000,A01A3A,5,1553843647000
1553843649937.5000000000,32,-10.9300000000,A01A3A,5,1553843647000
1553843649953.1201171875,32,-8.5900000000,A01A3A,5,1553843647000
1553843649968.7500000000,32,-6.2400000000,A01A3A,5,1553843647000
1553843649984.3798828125,32,-3.8700000000,A01A3A,5,1553843647000
1553843650000.0000000000,32,-1.4900000000,A01A3A,5,1553843647000
1553843650015.6201171875,32,0.9200000000,A01A3A,5,1553843647000
1553843650031.2500000000,32,3.3900000000,A01A3A,5,1553843647000
1553843650046.8798828125,32,5.9300000000,A01A3A,5,1553843647000
1553843650062.5000000000,32,8.5400000000,A01A3A,5,1553843647000
1553843650078.1201171875,32,11.2800000000,A01A3A,5,1553843647000
1553843650093.7500000000,32,14.1000000000,A01A3A,5,1553843647000
1553843650109.3798828125,32,16.9600000000,A01A3A,5,1553843647000
1553843650125.0000000000,32,19.8600000000,A01A3A,5,1553843647000
1553843650140.6201171875,32,22.8200000000,A01A3A,5,1553843647000
1553843650156.2500000000,32,25.8200000000,A01A3A,5,1553843647000
1553843650171.8798828125,32,28.9200000000,A01A3A,5,1553843647000
1553843650187.5000000000,32,32.1400000000,A01A3A,5,1553843647000
1553843650203.1201171875,32,35.5400000000,A01A3A,5,1553843647000
1553843650218.7500000000,32,39.2000000000,A01A3A,5,1553843647000
1553843650234.3798828125,32,43.0400000000,A01A3A,5,1553843647000
1553843650250.0000000000,32,47.0200000000,A01A3A,5,1553843647000
1553843650265.6201171875,32,51.1200000000,A01A3A,5,1553843647000
1553843650281.2500000000,32,55.3600000000,A01A3A,5,1553843647000
1553843650296.8798828125,32,59.7300000000,A01A3A,5,1553843647000
1553843650312.5000000000,32,64.2800000000,A01A3A,5,1553843647000
1553843650328.1201171875,32,69.0500000000,A01A3A,5,1553843647000
1553843650343.7500000000,32,74.1100000000,A01A3A,5,1553843647000
1553843650359.3798828125,32,79.5700000000,A01A3A,5,1553843647000
1553843650375.0000000000,32,85.2500000000,A01A3A,5,1553843647000
1553843650390.6201171875,32,91.0900000000,A01A3A,5,1553843647000
1553843650406.2500000000,32,97.0200000000,A01A3A,5,1553843647000
1553843650421.8798828125,32,103.0000000000,A01A3A,5,1553843647000
1553843650437.5000000000,32,109.0200000000,A01A3A,5,1553843647000
1553843650453.1201171875,32,115.0700000000,A01A3A,5,1553843647000
1553843650468.7500000000,32,121.1500000000,A01A3A,5,1553843647000
1553843650484.3798828125,32,127.2900000000,A01A3A,5,1553843647000
1553843650500.0000000000,32,133.5400000000,A01A3A,5,1553843647000
1553843650515.6201171875,32,139.5800000000,A01A3A,5,1553843647000
1553843650531.2500000000,32,145.1900000000,A01A3A,5,1553843647000
1553843650546.8798828125,32,150.1300000000,A01A3A,5,1553843647000
1553843650562.5000000000,32,154.1500000000,A01A3A,5,1553843647000
1553843650578.1201171875,32,156.9600000000,A01A3A,5,1553843647000
1553843650593.7500000000,32,158.1600000000,A01A3A,5,1553843647000
1553843650609.3798828125,32,157.2100000000,A01A3A,5,1553843647000
1553843650625.0000000000,32,153.3500000000,A01A3A,5,1553843647000
1553843650640.6201171875,32,148.0300000000,A01A3A,5,1553843647000
1553843650656.2500000000,32,141.7800000000,A01A3A,5,1553843647000
1553843650671.8798828125,32,134.9400000000,A01A3A,5,1553843647000
1553843650687.5000000000,32,127.7300000000,A01A3A,5,1553843647000
1553843650703.1201171875,32,120.3200000000,A01A3A,5,1553843647000
1553843650718.7500000000,32,112.8600000000,A01A3A,5,1553843647000
1553843650734.3798828125,32,105.4600000000,A01A3A,5,1553843647000
1553843650750.0000000000,32,98.2400000000,A01A3A,5,1553843647000
1553843650765.6201171875,32,91.3300000000,A01A3A,5,1553843647000
1553843650781.2500000000,32,84.9000000000,A01A3A,5,1553843647000
1553843650796.8798828125,32,78.7400000000,A01A3A,5,1553843647000
1553843650812.5000000000,32,72.7500000000,A01A3A,5,1553843647000
1553843650828.1201171875,32,66.8700000000,A01A3A,5,1553843647000
1553843650843.7500000000,32,61.0900000000,A01A3A,5,1553843647000
1553843650859.3798828125,32,55.4000000000,A01A3A,5,1553843647000
1553843650875.0000000000,32,49.8200000000,A01A3A,5,1553843647000
1553843650890.6201171875,32,44.4200000000,A01A3A,5,1553843647000
1553843650906.2500000000,32,39.2900000000,A01A3A,5,1553843647000
1553843650921.8798828125,32,34.5800000000,A01A3A,5,1553843647000
1553843650937.5000000000,32,30.1500000000,A01A3A,5,1553843647000
1553843650953.1201171875,32,25.9600000000,A01A3A,5,1553843647000
1553843650968.7500000000,32,22.0000000000,A01A3A,5,1553843647000
1553843650984.3798828125,32,18.2800000000,A01A3A,5,1553843647000
1553843651000.0000000000,32,14.8200000000,A01A3A,5,1553843647000
1553843651015.6201171875,32,11.6500000000,A01A3A,5,1553843647000
1553843651031.2500000000,32,8.8000000000,A01A3A,5,1553843647000
1553843651046.8798828125,32,6.2800000000,A01A3A,5,1553843647000
1553843651062.5000000000,32,4.1200000000,A01A3A,5,1553843647000
1553843651078.1201171875,32,2.1900000000,A01A3A,5,1553843647000
1553843651093.7500000000,32,0.3800000000,A01A3A,5,1553843647000
1553843651109.3798828125,32,-1.3600000000,A01A3A,5,1553843647000
1553843651125.0000000000,32,-3.0000000000,A01A3A,5,1553843647000
1553843651140.6201171875,32,-4.5000000000,A01A3A,5,1553843647000
1553843651156.2500000000,32,-5.7800000000,A01A3A,5,1553843647000
1553843651171.8798828125,32,-6.7600000000,A01A3A,5,1553843647000
1553843651187.5000000000,32,-7.3700000000,A01A3A,5,1553843647000
1553843651203.1201171875,32,-7.6300000000,A01A3A,5,1553843647000
1553843651218.7500000000,32,-7.6600000000,A01A3A,5,1553843647000
1553843651234.3798828125,32,-7.5900000000,A01A3A,5,1553843647000
1553843651250.0000000000,32,-7.5400000000,A01A3A,5,1553843647000
1553843651265.6201171875,32,-7.6100000000,A01A3A,5,1553843647000
1553843651281.2500000000,32,-7.8200000000,A01A3A,5,1553843647000
1553843651296.8798828125,32,-8.2000000000,A01A3A,5,1553843647000
1553843651312.5000000000,32,-8.7400000000,A01A3A,5,1553843647000
1553843651328.1201171875,32,-9.4800000000,A01A3A,5,1553843647000
1553843651343.7500000000,32,-10.4900000000,A01A3A,5,1553843647000
1553843651359.3798828125,32,-11.8900000000,A01A3A,5,1553843647000
1553843651375.0000000000,32,-13.7700000000,A01A3A,5,1553843647000
1553843651390.6201171875,32,-16.1300000000,A01A3A,5,1553843647000
1553843651406.2500000000,32,-18.8400000000,A01A3A,5,1553843647000
1553843651421.8798828125,32,-21.6700000000,A01A3A,5,1553843647000
1553843651437.5000000000,32,-24.3100000000,A01A3A,5,1553843647000
1553843651453.1201171875,32,-26.5200000000,A01A3A,5,1553843647000
1553843651468.7500000000,32,-28.1900000000,A01A3A,5,1553843647000
1553843651484.3798828125,32,-29.4200000000,A01A3A,5,1553843647000
1553843651500.0000000000,32,-30.5000000000,A01A3A,5,1553843647000
1553843651515.6201171875,32,-31.7100000000,A01A3A,5,1553843647000
1553843651531.2500000000,32,-33.2800000000,A01A3A,5,1553843647000
1553843651546.8798828125,32,-35.1700000000,A01A3A,5,1553843647000
1553843651562.5000000000,32,-37.1400000000,A01A3A,5,1553843647000
1553843651578.1201171875,32,-38.8000000000,A01A3A,5,1553843647000
1553843651593.7500000000,32,-39.9000000000,A01A3A,5,1553843647000
1553843651609.3798828125,32,-40.4600000000,A01A3A,5,1553843647000
1553843651625.0000000000,32,-40.8700000000,A01A3A,5,1553843647000
1553843651640.6201171875,32,-41.8400000000,A01A3A,5,1553843647000
1553843651656.2500000000,32,-44.0700000000,A01A3A,5,1553843647000
1553843651671.8798828125,32,-47.9900000000,A01A3A,5,1553843647000
1553843651687.5000000000,32,-53.5100000000,A01A3A,5,1553843647000
1553843651703.1201171875,32,-60.0400000000,A01A3A,5,1553843647000
1553843651718.7500000000,32,-66.7000000000,A01A3A,5,1553843647000
1553843651734.3798828125,32,-72.7500000000,A01A3A,5,1553843647000
1553843651750.0000000000,32,-78.0200000000,A01A3A,5,1553843647000
1553843651765.6201171875,32,-82.9900000000,A01A3A,5,1553843647000
1553843651781.2500000000,32,-88.7200000000,A01A3A,5,1553843647000
1553843651796.8798828125,32,-96.3600000000,A01A3A,5,1553843647000
1553843651812.5000000000,32,-106.6500000000,A01A3A,5,1553843647000
1553843651828.1201171875,32,-119.5100000000,A01A3A,5,1553843647000
1553843651843.7500000000,32,-134.1400000000,A01A3A,5,1553843647000
1553843651859.3798828125,32,-149.2600000000,A01A3A,5,1553843647000
1553843651875.0000000000,32,-163.7300000000,A01A3A,5,1553843647000
1553843651890.6201171875,32,-177.0500000000,A01A3A,5,1553843647000
1553843651906.2500000000,32,-189.4900000000,A01A3A,5,1553843647000
1553843651921.8798828125,32,-202.0500000000,A01A3A,5,1553843647000
1553843651937.5000000000,32,-216.2100000000,A01A3A,5,1553843647000
1553843651953.1201171875,32,-233.5800000000,A01A3A,5,1553843647000
1553843651968.7500000000,32,-255.5000000000,A01A3A,5,1553843647000
1553843651984.3798828125,32,-282.3700000000,A01A3A,5,1553843647000
1553843652000.0000000000,32,-312.9100000000,A01A3A,5,1553843647000
1553843652015.6201171875,32,-343.7400000000,A01A3A,5,1553843647000
1553843652031.2500000000,32,-369.5800000000,A01A3A,5,1553843647000
1553843652046.8798828125,32,-384.5400000000,A01A3A,5,1553843647000
1553843652062.5000000000,32,-384.0100000000,A01A3A,5,1553843647000
1553843652078.1201171875,32,-366.5800000000,A01A3A,5,1553843647000
1553843652093.7500000000,32,-334.9200000000,A01A3A,5,1553843647000
1553843652109.3798828125,32,-294.9300000000,A01A3A,5,1553843647000
1553843652125.0000000000,32,-253.8800000000,A01A3A,5,1553843647000
1553843652140.6201171875,32,-217.8300000000,A01A3A,5,1553843647000
1553843652156.2500000000,32,-189.9300000000,A01A3A,5,1553843647000
1553843652171.8798828125,32,-169.9200000000,A01A3A,5,1553843647000
1553843652187.5000000000,32,-155.1300000000,A01A3A,5,1553843647000
1553843652203.1201171875,32,-142.1000000000,A01A3A,5,1553843647000
1553843652218.7500000000,32,-128.0200000000,A01A3A,5,1553843647000
1553843652234.3798828125,32,-111.5800000000,A01A3A,5,1553843647000
1553843652250.0000000000,32,-92.9300000000,A01A3A,5,1553843647000
1553843652265.6201171875,32,-73.1600000000,A01A3A,5,1553843647000
1553843652281.2500000000,32,-53.6800000000,A01A3A,5,1553843647000
1553843652296.8798828125,32,-35.8500000000,A01A3A,5,1553843647000
1553843652312.5000000000,32,-20.6900000000,A01A3A,5,1553843647000
1553843652328.1201171875,32,-8.8500000000,A01A3A,5,1553843647000
1553843652343.7500000000,32,-0.6500000000,A01A3A,5,1553843647000
1553843652359.3798828125,32,4.0300000000,A01A3A,5,1553843647000
1553843652375.0000000000,32,5.8900000000,A01A3A,5,1553843647000
1553843652390.6201171875,32,6.1400000000,A01A3A,5,1553843647000
1553843652406.2500000000,32,6.2400000000,A01A3A,5,1553843647000
1553843652421.8798828125,32,7.5300000000,A01A3A,5,1553843647000
1553843652437.5000000000,32,10.6500000000,A01A3A,5,1553843647000
1553843652453.1201171875,32,15.3600000000,A01A3A,5,1553843647000
1553843652468.7500000000,32,20.5400000000,A01A3A,5,1553843647000
1553843652484.3798828125,32,24.6600000000,A01A3A,5,1553843647000
1553843652500.0000000000,32,26.3700000000,A01A3A,5,1553843647000
1553843652515.6201171875,32,25.1600000000,A01A3A,5,1553843647000
1553843652531.2500000000,32,21.5500000000,A01A3A,5,1553843647000
1553843652546.8798828125,32,16.9600000000,A01A3A,5,1553843647000
1553843652562.5000000000,32,13.1300000000,A01A3A,5,1553843647000
1553843652578.1201171875,32,11.3800000000,A01A3A,5,1553843647000
1553843652593.7500000000,32,11.9600000000,A01A3A,5,1553843647000
1553843652609.3798828125,32,13.8800000000,A01A3A,5,1553843647000
1553843652625.0000000000,32,15.4100000000,A01A3A,5,1553843647000
1553843652640.6201171875,32,14.8400000000,A01A3A,5,1553843647000
1553843652656.2500000000,32,11.5100000000,A01A3A,5,1553843647000
1553843652671.8798828125,32,6.2000000000,A01A3A,5,1553843647000
1553843652687.5000000000,32,0.7300000000,A01A3A,5,1553843647000
1553843652703.1201171875,32,-3.0200000000,A01A3A,5,1553843647000
1553843652718.7500000000,32,-4.2300000000,A01A3A,5,1553843647000
1553843652734.3798828125,32,-3.6800000000,A01A3A,5,1553843647000
1553843652750.0000000000,32,-3.4200000000,A01A3A,5,1553843647000
1553843652765.6201171875,32,-5.6600000000,A01A3A,5,1553843647000
1553843652781.2500000000,32,-11.6100000000,A01A3A,5,1553843647000
1553843652796.8798828125,32,-20.7500000000,A01A3A,5,1553843647000
1553843652812.5000000000,32,-31.0200000000,A01A3A,5,1553843647000
1553843652828.1201171875,32,-39.6900000000,A01A3A,5,1553843647000
1553843652843.7500000000,32,-44.3800000000,A01A3A,5,1553843647000
1553843652859.3798828125,32,-43.9100000000,A01A3A,5,1553843647000
1553843652875.0000000000,32,-38.5100000000,A01A3A,5,1553843647000
1553843652890.6201171875,32,-29.4600000000,A01A3A,5,1553843647000
1553843652906.2500000000,32,-18.5300000000,A01A3A,5,1553843647000
1553843652921.8798828125,32,-7.4100000000,A01A3A,5,1553843647000
1553843652937.5000000000,32,2.7100000000,A01A3A,5,1553843647000
1553843652953.1201171875,32,11.1900000000,A01A3A,5,1553843647000
1553843652968.7500000000,32,17.8600000000,A01A3A,5,1553843647000
1553843652984.3798828125,32,22.9100000000,A01A3A,5,1553843647000
1553843653000.0000000000,32,26.5700000000,A01A3A,5,1553843647000
1553843653015.6201171875,32,29.0800000000,A01A3A,5,1553843647000
1553843653031.2500000000,32,30.6100000000,A01A3A,5,1553843647000
1553843653046.8798828125,32,31.3600000000,A01A3A,5,1553843647000
1553843653062.5000000000,32,31.5900000000,A01A3A,5,1553843647000
1553843653078.1201171875,32,31.6000000000,A01A3A,5,1553843647000
1553843653093.7500000000,32,31.7200000000,A01A3A,5,1553843647000
1553843653109.3798828125,32,32.0800000000,A01A3A,5,1553843647000
1553843653125.0000000000,32,32.6500000000,A01A3A,5,1553843647000
1553843653140.6201171875,32,33.1900000000,A01A3A,5,1553843647000
1553843653156.2500000000,32,33.3900000000,A01A3A,5,1553843647000
1553843653171.8798828125,32,33.1100000000,A01A3A,5,1553843647000
1553843653187.5000000000,32,32.4300000000,A01A3A,5,1553843647000
1553843653203.1201171875,32,31.6500000000,A01A3A,5,1553843647000
1553843653218.7500000000,32,31.1000000000,A01A3A,5,1553843647000
1553843653234.3798828125,32,30.9600000000,A01A3A,5,1553843647000
1553843653250.0000000000,32,31.1300000000,A01A3A,5,1553843647000
1553843653265.6201171875,32,31.2500000000,A01A3A,5,1553843647000
1553843653281.2500000000,32,30.8300000000,A01A3A,5,1553843647000
1553843653296.8798828125,32,29.4600000000,A01A3A,5,1553843647000
1553843653312.5000000000,32,26.9400000000,A01A3A,5,1553843647000
1553843653328.1201171875,32,23.2400000000,A01A3A,5,1553843647000
1553843653343.7500000000,32,18.5400000000,A01A3A,5,1553843647000
1553843653359.3798828125,32,13.0800000000,A01A3A,5,1553843647000
1553843653375.0000000000,32,7.1800000000,A01A3A,5,1553843647000
1553843653390.6201171875,32,1.1300000000,A01A3A,5,1553843647000
1553843653406.2500000000,32,-4.8000000000,A01A3A,5,1553843647000
1553843653421.8798828125,32,-10.4000000000,A01A3A,5,1553843647000
1553843653437.5000000000,32,-15.5800000000,A01A3A,5,1553843647000
1553843653453.1201171875,32,-20.3500000000,A01A3A,5,1553843647000
1553843653468.7500000000,32,-24.8100000000,A01A3A,5,1553843647000
1553843653484.3798828125,32,-29.0200000000,A01A3A,5,1553843647000
1553843653500.0000000000,32,-33.0400000000,A01A3A,5,1553843647000
1553843653515.6201171875,32,-36.8500000000,A01A3A,5,1553843647000
1553843653531.2500000000,32,-40.4100000000,A01A3A,5,1553843647000
1553843653546.8798828125,32,-43.5100000000,A01A3A,5,1553843647000
1553843653562.5000000000,32,-45.7100000000,A01A3A,5,1553843647000
1553843653578.1201171875,32,-46.2200000000,A01A3A,5,1553843647000
1553843653593.7500000000,32,-44.0600000000,A01A3A,5,1553843647000
1553843653609.3798828125,32,-38.3500000000,A01A3A,5,1553843647000
1553843653625.0000000000,32,-28.7300000000,A01A3A,5,1553843647000
1553843653640.6201171875,32,-15.7600000000,A01A3A,5,1553843647000
1553843653656.2500000000,32,-0.7800000000,A01A3A,5,1553843647000
1553843653671.8798828125,32,14.3400000000,A01A3A,5,1553843647000
1553843653687.5000000000,32,27.8800000000,A01A3A,5,1553843647000
1553843653703.1201171875,32,38.7100000000,A01A3A,5,1553843647000
1553843653718.7500000000,32,46.5400000000,A01A3A,5,1553843647000
1553843653734.3798828125,32,51.6900000000,A01A3A,5,1553843647000
1553843653750.0000000000,32,54.7100000000,A01A3A,5,1553843647000
1553843653765.6201171875,32,56.0500000000,A01A3A,5,1553843647000
1553843653781.2500000000,32,55.9000000000,A01A3A,5,1553843647000
1553843653796.8798828125,32,54.4000000000,A01A3A,5,1553843647000
1553843653812.5000000000,32,51.8200000000,A01A3A,5,1553843647000
1553843653828.1201171875,32,48.7400000000,A01A3A,5,1553843647000
1553843653843.7500000000,32,45.9500000000,A01A3A,5,1553843647000
1553843653859.3798828125,32,44.1500000000,A01A3A,5,1553843647000
1553843653875.0000000000,32,43.6100000000,A01A3A,5,1553843647000
1553843653890.6201171875,32,44.0800000000,A01A3A,5,1553843647000
1553843653906.2500000000,32,44.8900000000,A01A3A,5,1553843647000
1553843653921.8798828125,32,45.2800000000,A01A3A,5,1553843647000
1553843653937.5000000000,32,44.7300000000,A01A3A,5,1553843647000
1553843653953.1201171875,32,43.1400000000,A01A3A,5,1553843647000
1553843653968.7500000000,32,40.8400000000,A01A3A,5,1553843647000
1553843653984.3798828125,32,38.3400000000,A01A3A,5,1553843647000
1553843654000.0000000000,32,36.0800000000,A01A3A,5,1553843647000
1553843654015.6201171875,32,34.2100000000,A01A3A,5,1553843647000
1553843654031.2500000000,32,32.4900000000,A01A3A,5,1553843647000
1553843654046.8798828125,32,30.4600000000,A01A3A,5,1553843647000
1553843654062.5000000000,32,27.6100000000,A01A3A,5,1553843647000
1553843654078.1201171875,32,23.6300000000,A01A3A,5,1553843647000
1553843654093.7500000000,32,18.5800000000,A01A3A,5,1553843647000
1553843654109.3798828125,32,12.8300000000,A01A3A,5,1553843647000
1553843654125.0000000000,32,7.0100000000,A01A3A,5,1553843647000
1553843654140.6201171875,32,1.7100000000,A01A3A,5,1553843647000
1553843654156.2500000000,32,-2.6400000000,A01A3A,5,1553843647000
1553843654171.8798828125,32,-5.9900000000,A01A3A,5,1553843647000
1553843654187.5000000000,32,-8.6100000000,A01A3A,5,1553843647000
1553843654203.1201171875,32,-10.9800000000,A01A3A,5,1553843647000
1553843654218.7500000000,32,-13.7200000000,A01A3A,5,1553843647000
1553843654234.3798828125,32,-17.3300000000,A01A3A,5,1553843647000
1553843654250.0000000000,32,-22.0800000000,A01A3A,5,1553843647000
1553843654265.6201171875,32,-27.8000000000,A01A3A,5,1553843647000
1553843654281.2500000000,32,-33.7600000000,A01A3A,5,1553843647000
1553843654296.8798828125,32,-38.6700000000,A01A3A,5,1553843647000
1553843654312.5000000000,32,-41.0500000000,A01A3A,5,1553843647000
1553843654328.1201171875,32,-39.6300000000,A01A3A,5,1553843647000
1553843654343.7500000000,32,-33.9100000000,A01A3A,5,1553843647000
1553843654359.3798828125,32,-24.4300000000,A01A3A,5,1553843647000
1553843654375.0000000000,32,-12.6000000000,A01A3A,5,1553843647000
1553843654390.6201171875,32,-0.2800000000,A01A3A,5,1553843647000
1553843654406.2500000000,32,10.8700000000,A01A3A,5,1553843647000
1553843654421.8798828125,32,19.8700000000,A01A3A,5,1553843647000
1553843654437.5000000000,32,26.5000000000,A01A3A,5,1553843647000
1553843654453.1201171875,32,31.1500000000,A01A3A,5,1553843647000
1553843654468.7500000000,32,34.3900000000,A01A3A,5,1553843647000
1553843654484.3798828125,32,36.6600000000,A01A3A,5,1553843647000
1553843654500.0000000000,32,38.1800000000,A01A3A,5,1553843647000
1553843654515.6201171875,32,39.0200000000,A01A3A,5,1553843647000
1553843654531.2500000000,32,39.2600000000,A01A3A,5,1553843647000
1553843654546.8798828125,32,39.1300000000,A01A3A,5,1553843647000
1553843654562.5000000000,32,38.9100000000,A01A3A,5,1553843647000
1553843654578.1201171875,32,38.8500000000,A01A3A,5,1553843647000
1553843654593.7500000000,32,39.0900000000,A01A3A,5,1553843647000
1553843654609.3798828125,32,39.5200000000,A01A3A,5,1553843647000
1553843654625.0000000000,32,39.9100000000,A01A3A,5,1553843647000
1553843654640.6201171875,32,39.9700000000,A01A3A,5,1553843647000
1553843654656.2500000000,32,39.4900000000,A01A3A,5,1553843647000
1553843654671.8798828125,32,38.3700000000,A01A3A,5,1553843647000
1553843654687.5000000000,32,36.6300000000,A01A3A,5,1553843647000
1553843654703.1201171875,32,34.3800000000,A01A3A,5,1553843647000
1553843654718.7500000000,32,31.7600000000,A01A3A,5,1553843647000
1553843654734.3798828125,32,28.9000000000,A01A3A,5,1553843647000
1553843654750.0000000000,32,25.8600000000,A01A3A,5,1553843647000
1553843654765.6201171875,32,22.5700000000,A01A3A,5,1553843647000
1553843654781.2500000000,32,18.8900000000,A01A3A,5,1553843647000
1553843654796.8798828125,32,14.6300000000,A01A3A,5,1553843647000
1553843654812.5000000000,32,9.6600000000,A01A3A,5,1553843647000
1553843654828.1201171875,32,4.1200000000,A01A3A,5,1553843647000
1553843654843.7500000000,32,-1.6600000000,A01A3A,5,1553843647000
1553843654859.3798828125,32,-7.2100000000,A01A3A,5,1553843647000
1553843654875.0000000000,32,-12.0500000000,A01A3A,5,1553843647000
1553843654890.6201171875,32,-15.9800000000,A01A3A,5,1553843647000
1553843654906.2500000000,32,-19.0900000000,A01A3A,5,1553843647000
1553843654921.8798828125,32,-21.7300000000,A01A3A,5,1553843647000
1553843654937.5000000000,32,-24.4300000000,A01A3A,5,1553843647000
1553843654953.1201171875,32,-27.7500000000,A01A3A,5,1553843647000
1553843654968.7500000000,32,-32.1000000000,A01A3A,5,1553843647000
1553843654984.3798828125,32,-37.6400000000,A01A3A,5,1553843647000
1553843655000.0000000000,32,-44.1700000000,A01A3A,5,1553843647000
1553843655015.6201171875,32,-50.9600000000,A01A3A,5,1553843647000
1553843655031.2500000000,32,-56.7700000000,A01A3A,5,1553843647000
1553843655046.8798828125,32,-60.0800000000,A01A3A,5,1553843647000
1553843655062.5000000000,32,-59.5500000000,A01A3A,5,1553843647000
1553843655078.1201171875,32,-54.5000000000,A01A3A,5,1553843647000
1553843655093.7500000000,32,-45.2500000000,A01A3A,5,1553843647000
1553843655109.3798828125,32,-33.1000000000,A01A3A,5,1553843647000
1553843655125.0000000000,32,-19.8400000000,A01A3A,5,1553843647000
1553843655140.6201171875,32,-7.3000000000,A01A3A,5,1553843647000
1553843655156.2500000000,32,3.3400000000,A01A3A,5,1553843647000
1553843655171.8798828125,32,11.5700000000,A01A3A,5,1553843647000
1553843655187.5000000000,32,17.5500000000,A01A3A,5,1553843647000
1553843655203.1201171875,32,21.7700000000,A01A3A,5,1553843647000
1553843655218.7500000000,32,24.7000000000,A01A3A,5,1553843647000
1553843655234.3798828125,32,26.6900000000,A01A3A,5,1553843647000
1553843655250.0000000000,32,27.9300000000,A01A3A,5,1553843647000
1553843655265.6201171875,32,28.5600000000,A01A3A,5,1553843647000
1553843655281.2500000000,32,28.7200000000,A01A3A,5,1553843647000
1553843655296.8798828125,32,28.5800000000,A01A3A,5,1553843647000
1553843655312.5000000000,32,28.3500000000,A01A3A,5,1553843647000
1553843655328.1201171875,32,28.1900000000,A01A3A,5,1553843647000
1553843655343.7500000000,32,28.2000000000,A01A3A,5,1553843647000
1553843655359.3798828125,32,28.3900000000,A01A3A,5,1553843647000
1553843655375.0000000000,32,28.6100000000,A01A3A,5,1553843647000
1553843655390.6201171875,32,28.6100000000,A01A3A,5,1553843647000
1553843655406.2500000000,32,28.1600000000,A01A3A,5,1553843647000
1553843655421.8798828125,32,27.1600000000,A01A3A,5,1553843647000
1553843655437.5000000000,32,25.7500000000,A01A3A,5,1553843647000
1553843655453.1201171875,32,24.2300000000,A01A3A,5,1553843647000
1553843655468.7500000000,32,22.9600000000,A01A3A,5,1553843647000
1553843655484.3798828125,32,21.9900000000,A01A3A,5,1553843647000
1553843655500.0000000000,32,21.0400000000,A01A3A,5,1553843647000
1553843655515.6201171875,32,19.5600000000,A01A3A,5,1553843647000
1553843655531.2500000000,32,16.9800000000,A01A3A,5,1553843647000
1553843655546.8798828125,32,13.0600000000,A01A3A,5,1553843647000
1553843655562.5000000000,32,8.0800000000,A01A3A,5,1553843647000
1553843655578.1201171875,32,2.7100000000,A01A3A,5,1553843647000
1553843655593.7500000000,32,-2.2100000000,A01A3A,5,1553843647000
1553843655609.3798828125,32,-6.1500000000,A01A3A,5,1553843647000
1553843655625.0000000000,32,-9.0200000000,A01A3A,5,1553843647000
1553843655640.6201171875,32,-11.2200000000,A01A3A,5,1553843647000
1553843655656.2500000000,32,-13.3900000000,A01A3A,5,1553843647000
1553843655671.8798828125,32,-16.1200000000,A01A3A,5,1553843647000
1553843655687.5000000000,32,-19.8100000000,A01A3A,5,1553843647000
1553843655703.1201171875,32,-24.5900000000,A01A3A,5,1553843647000
1553843655718.7500000000,32,-30.3700000000,A01A3A,5,1553843647000
1553843655734.3798828125,32,-36.7800000000,A01A3A,5,1553843647000
1553843655750.0000000000,32,-43.1500000000,A01A3A,5,1553843647000
1553843655765.6201171875,32,-48.4000000000,A01A3A,5,1553843647000
1553843655781.2500000000,32,-51.2400000000,A01A3A,5,1553843647000
1553843655796.8798828125,32,-50.5100000000,A01A3A,5,1553843647000
1553843655812.5000000000,32,-45.5700000000,A01A3A,5,1553843647000
1553843655828.1201171875,32,-36.6900000000,A01A3A,5,1553843647000
1553843655843.7500000000,32,-25.0200000000,A01A3A,5,1553843647000
1553843655859.3798828125,32,-12.2500000000,A01A3A,5,1553843647000
1553843655875.0000000000,32,-0.0600000000,A01A3A,5,1553843647000
1553843655890.6201171875,32,10.3400000000,A01A3A,5,1553843647000
1553843655906.2500000000,32,18.4400000000,A01A3A,5,1553843647000
1553843655921.8798828125,32,24.3300000000,A01A3A,5,1553843647000
1553843655937.5000000000,32,28.3600000000,A01A3A,5,1553843647000
1553843655953.1201171875,32,30.8800000000,A01A3A,5,1553843647000
1553843655968.7500000000,32,32.0900000000,A01A3A,5,1553843647000
1553843655984.3798828125,32,32.1300000000,A01A3A,5,1553843647000
1553843656000.0000000000,32,31.2500000000,A01A3A,5,1553843647000
1553843656015.6201171875,32,29.8500000000,A01A3A,5,1553843647000
1553843656031.2500000000,32,28.5100000000,A01A3A,5,1553843647000
1553843656046.8798828125,32,27.6900000000,A01A3A,5,1553843647000
1553843656062.5000000000,32,27.6000000000,A01A3A,5,1553843647000
1553843656078.1201171875,32,28.1200000000,A01A3A,5,1553843647000
1553843656093.7500000000,32,28.8200000000,A01A3A,5,1553843647000
1553843656109.3798828125,32,29.2000000000,A01A3A,5,1553843647000
1553843656125.0000000000,32,28.9500000000,A01A3A,5,1553843647000
1553843656140.6201171875,32,28.1400000000,A01A3A,5,1553843647000
1553843656156.2500000000,32,27.0500000000,A01A3A,5,1553843647000
1553843656171.8798828125,32,26.0400000000,A01A3A,5,1553843647000
1553843656187.5000000000,32,25.2500000000,A01A3A,5,1553843647000
1553843656203.1201171875,32,24.4400000000,A01A3A,5,1553843647000
1553843656218.7500000000,32,23.0400000000,A01A3A,5,1553843647000
1553843656234.3798828125,32,20.4600000000,A01A3A,5,1553843647000
1553843656250.0000000000,32,16.3300000000,A01A3A,5,1553843647000
1553843656265.6201171875,32,10.8100000000,A01A3A,5,1553843647000
1553843656281.2500000000,32,4.4800000000,A01A3A,5,1553843647000
1553843656296.8798828125,32,-1.8100000000,A01A3A,5,1553843647000
1553843656312.5000000000,32,-7.2900000000,A01A3A,5,1553843647000
1553843656328.1201171875,32,-11.5200000000,A01A3A,5,1553843647000
1553843656343.7500000000,32,-14.5400000000,A01A3A,5,1553843647000
1553843656359.3798828125,32,-16.7700000000,A01A3A,5,1553843647000
1553843656375.0000000000,32,-18.8600000000,A01A3A,5,1553843647000
1553843656390.6201171875,32,-21.5500000000,A01A3A,5,1553843647000
1553843656406.2500000000,32,-25.4400000000,A01A3A,5,1553843647000
1553843656421.8798828125,32,-30.8200000000,A01A3A,5,1553843647000
1553843656437.5000000000,32,-37.4800000000,A01A3A,5,1553843647000
1553843656453.1201171875,32,-44.6200000000,A01A3A,5,1553843647000
1553843656468.7500000000,32,-50.8600000000,A01A3A,5,1553843647000
1553843656484.3798828125,32,-54.5900000000,A01A3A,5,1553843647000
1553843656500.0000000000,32,-54.4300000000,A01A3A,5,1553843647000
1553843656515.6201171875,32,-49.7800000000,A01A3A,5,1553843647000
1553843656531.2500000000,32,-41.0100000000,A01A3A,5,1553843647000
1553843656546.8798828125,32,-29.4300000000,A01A3A,5,1553843647000
1553843656562.5000000000,32,-16.7600000000,A01A3A,5,1553843647000
1553843656578.1201171875,32,-4.6400000000,A01A3A,5,1553843647000
1553843656593.7500000000,32,5.8400000000,A01A3A,5,1553843647000
1553843656609.3798828125,32,14.2800000000,A01A3A,5,1553843647000
1553843656625.0000000000,32,20.8200000000,A01A3A,5,1553843647000
1553843656640.6201171875,32,25.7600000000,A01A3A,5,1553843647000
1553843656656.2500000000,32,29.3800000000,A01A3A,5,1553843647000
1553843656671.8798828125,32,31.7800000000,A01A3A,5,1553843647000
1553843656687.5000000000,32,32.9600000000,A01A3A,5,1553843647000
1553843656703.1201171875,32,32.9700000000,A01A3A,5,1553843647000
1553843656718.7500000000,32,32.0500000000,A01A3A,5,1553843647000
1553843656734.3798828125,32,30.6600000000,A01A3A,5,1553843647000
1553843656750.0000000000,32,29.2700000000,A01A3A,5,1553843647000
1553843656765.6201171875,32,28.3000000000,A01A3A,5,1553843647000
1553843656781.2500000000,32,27.8900000000,A01A3A,5,1553843647000
1553843656796.8798828125,32,27.9000000000,A01A3A,5,1553843647000
1553843656812.5000000000,32,28.0200000000,A01A3A,5,1553843647000
1553843656828.1201171875,32,27.9300000000,A01A3A,5,1553843647000
1553843656843.7500000000,32,27.4500000000,A01A3A,5,1553843647000
1553843656859.3798828125,32,26.6200000000,A01A3A,5,1553843647000
1553843656875.0000000000,32,25.6100000000,A01A3A,5,1553843647000
1553843656890.6201171875,32,24.6100000000,A01A3A,5,1553843647000
1553843656906.2500000000,32,23.5700000000,A01A3A,5,1553843647000
1553843656921.8798828125,32,22.2600000000,A01A3A,5,1553843647000
1553843656937.5000000000,32,20.2800000000,A01A3A,5,1553843647000
1553843656953.1201171875,32,17.2400000000,A01A3A,5,1553843647000
1553843656968.7500000000,32,12.9700000000,A01A3A,5,1553843647000
1553843656984.3798828125,32,7.5800000000,A01A3A,5,1553843647000
1553843657000.0000000000,32,1.4900000000,A01A3A,5,1553843647000
1553843657015.6201171875,32,-4.6900000000,A01A3A,5,1553843647000
1553843657031.2500000000,32,-10.3400000000,A01A3A,5,1553843647000
1553843657046.8798828125,32,-15.0600000000,A01A3A,5,1553843647000
1553843657062.5000000000,32,-18.7400000000,A01A3A,5,1553843647000
1553843657078.1201171875,32,-21.6100000000,A01A3A,5,1553843647000
1553843657093.7500000000,32,-24.1800000000,A01A3A,5,1553843647000
1553843657109.3798828125,32,-27.1600000000,A01A3A,5,1553843647000
1553843657125.0000000000,32,-31.2400000000,A01A3A,5,1553843647000
1553843657140.6201171875,32,-36.8900000000,A01A3A,5,1553843647000
1553843657156.2500000000,32,-44.1000000000,A01A3A,5,1553843647000
1553843657171.8798828125,32,-52.1100000000,A01A3A,5,1553843647000
1553843657187.5000000000,32,-59.4000000000,A01A3A,5,1553843647000
1553843657203.1201171875,32,-64.0000000000,A01A3A,5,1553843647000
1553843657218.7500000000,32,-64.1000000000,A01A3A,5,1553843647000
1553843657234.3798828125,32,-58.6800000000,A01A3A,5,1553843647000
1553843657250.0000000000,32,-48.0700000000,A01A3A,5,1553843647000
1553843657265.6201171875,32,-33.8200000000,A01A3A,5,1553843647000
1553843657281.2500000000,32,-18.2900000000,A01A3A,5,1553843647000
1553843657296.8798828125,32,-3.8200000000,A01A3A,5,1553843647000
1553843657312.5000000000,32,7.9500000000,A01A3A,5,1553843647000
1553843657328.1201171875,32,16.4000000000,A01A3A,5,1553843647000
1553843657343.7500000000,32,21.7700000000,A01A3A,5,1553843647000
1553843657359.3798828125,32,24.8100000000,A01A3A,5,1553843647000
1553843657375.0000000000,32,26.3900000000,A01A3A,5,1553843647000
1553843657390.6201171875,32,27.3600000000,A01A3A,5,1553843647000
1553843657406.2500000000,32,28.5300000000,A01A3A,5,1553843647000
1553843657421.8798828125,32,30.7300000000,A01A3A,5,1553843647000
1553843657437.5000000000,32,34.6100000000,A01A3A,5,1553843647000
1553843657453.1201171875,32,40.5400000000,A01A3A,5,1553843647000
1553843657468.7500000000,32,48.2600000000,A01A3A,5,1553843647000
1553843657484.3798828125,32,56.8400000000,A01A3A,5,1553843647000
1553843657500.0000000000,32,64.9000000000,A01A3A,5,1553843647000
1553843657515.6201171875,32,71.0300000000,A01A3A,5,1553843647000
1553843657531.2500000000,32,74.2000000000,A01A3A,5,1553843647000
1553843657546.8798828125,32,74.1500000000,A01A3A,5,1553843647000
1553843657562.5000000000,32,71.4200000000,A01A3A,5,1553843647000
1553843657578.1201171875,32,67.1400000000,A01A3A,5,1553843647000
1553843657593.7500000000,32,62.6600000000,A01A3A,5,1553843647000
1553843657609.3798828125,32,59.0600000000,A01A3A,5,1553843647000
1553843657625.0000000000,32,56.8800000000,A01A3A,5,1553843647000
1553843657640.6201171875,32,55.9800000000,A01A3A,5,1553843647000
1553843657656.2500000000,32,55.6700000000,A01A3A,5,1553843647000
1553843657671.8798828125,32,54.9600000000,A01A3A,5,1553843647000
1553843657687.5000000000,32,53.0300000000,A01A3A,5,1553843647000
1553843657703.1201171875,32,49.5300000000,A01A3A,5,1553843647000
1553843657718.7500000000,32,44.6600000000,A01A3A,5,1553843647000
1553843657734.3798828125,32,39.0400000000,A01A3A,5,1553843647000
1553843657750.0000000000,32,33.3100000000,A01A3A,5,1553843647000
1553843657765.6201171875,32,27.8400000000,A01A3A,5,1553843647000
1553843657781.2500000000,32,22.4600000000,A01A3A,5,1553843647000
1553843657796.8798828125,32,16.6000000000,A01A3A,5,1553843647000
1553843657812.5000000000,32,9.5300000000,A01A3A,5,1553843647000
1553843657828.1201171875,32,0.6800000000,A01A3A,5,1553843647000
1553843657843.7500000000,32,-10.1000000000,A01A3A,5,1553843647000
1553843657859.3798828125,32,-22.5400000000,A01A3A,5,1553843647000
1553843657875.0000000000,32,-35.9200000000,A01A3A,5,1553843647000
1553843657890.6201171875,32,-49.0400000000,A01A3A,5,1553843647000
1553843657906.2500000000,32,-60.3400000000,A01A3A,5,1553843647000
1553843657921.8798828125,32,-68.0800000000,A01A3A,5,1553843647000
1553843657937.5000000000,32,-70.7300000000,A01A3A,5,1553843647000
1553843657953.1201171875,32,-67.5800000000,A01A3A,5,1553843647000
1553843657968.7500000000,32,-59.0900000000,A01A3A,5,1553843647000
1553843657984.3798828125,32,-46.8700000000,A01A3A,5,1553843647000
1553843658000.0000000000,32,-33.2300000000,A01A3A,5,1553843647000
1553843658015.6201171875,32,-20.3400000000,A01A3A,5,1553843647000
1553843658031.2500000000,32,-9.6500000000,A01A3A,5,1553843647000
1553843658046.8798828125,32,-1.6800000000,A01A3A,5,1553843647000
1553843658062.5000000000,32,3.8100000000,A01A3A,5,1553843647000
1553843658078.1201171875,32,7.2900000000,A01A3A,5,1553843647000
1553843658093.7500000000,32,9.1900000000,A01A3A,5,1553843647000
1553843658109.3798828125,32,9.7100000000,A01A3A,5,1553843647000
1553843658125.0000000000,32,9.1300000000,A01A3A,5,1553843647000
1553843658140.6201171875,32,7.8800000000,A01A3A,5,1553843647000
1553843658156.2500000000,32,6.5300000000,A01A3A,5,1553843647000
1553843658171.8798828125,32,5.6600000000,A01A3A,5,1553843647000
1553843658187.5000000000,32,5.5500000000,A01A3A,5,1553843647000
1553843658203.1201171875,32,6.1000000000,A01A3A,5,1553843647000
1553843658218.7500000000,32,6.9500000000,A01A3A,5,1553843647000
1553843658234.3798828125,32,7.6800000000,A01A3A,5,1553843647000
1553843658250.0000000000,32,8.0700000000,A01A3A,5,1553843647000
1553843658265.6201171875,32,8.1300000000,A01A3A,5,1553843647000
1553843658281.2500000000,32,8.0300000000,A01A3A,5,1553843647000
1553843658296.8798828125,32,7.8700000000,A01A3A,5,1553843647000
1553843658312.5000000000,32,7.5900000000,A01A3A,5,1553843647000
1553843658328.1201171875,32,6.9200000000,A01A3A,5,1553843647000
1553843658343.7500000000,32,5.5000000000,A01A3A,5,1553843647000
1553843658359.3798828125,32,3.0800000000,A01A3A,5,1553843647000
1553843658375.0000000000,32,-0.3300000000,A01A3A,5,1553843647000
1553843658390.6201171875,32,-4.4700000000,A01A3A,5,1553843647000
1553843658406.2500000000,32,-8.8700000000,A01A3A,5,1553843647000
1553843658421.8798828125,32,-13.0800000000,A01A3A,5,1553843647000
1553843658437.5000000000,32,-16.7400000000,A01A3A,5,1553843647000
1553843658453.1201171875,32,-19.7000000000,A01A3A,5,1553843647000
1553843658468.7500000000,32,-22.0800000000,A01A3A,5,1553843647000
1553843658484.3798828125,32,-24.1700000000,A01A3A,5,1553843647000
1553843658500.0000000000,32,-26.4500000000,A01A3A,5,1553843647000
1553843658515.6201171875,32,-29.3900000000,A01A3A,5,1553843647000
1553843658531.2500000000,32,-33.3200000000,A01A3A,5,1553843647000
1553843658546.8798828125,32,-38.2000000000,A01A3A,5,1553843647000
1553843658562.5000000000,32,-43.3700000000,A01A3A,5,1553843647000
1553843658578.1201171875,32,-47.5900000000,A01A3A,5,1553843647000
1553843658593.7500000000,32,-49.3400000000,A01A3A,5,1553843647000
1553843658609.3798828125,32,-47.2900000000,A01A3A,5,1553843647000
1553843658625.0000000000,32,-40.8900000000,A01A3A,5,1553843647000
1553843658640.6201171875,32,-30.6600000000,A01A3A,5,1553843647000
1553843658656.2500000000,32,-18.0700000000,A01A3A,5,1553843647000
1553843658671.8798828125,32,-5.0900000000,A01A3A,5,1553843647000
1553843658687.5000000000,32,6.5000000000,A01A3A,5,1553843647000
1553843658703.1201171875,32,15.6400000000,A01A3A,5,1553843647000
1553843658718.7500000000,32,22.1000000000,A01A3A,5,1553843647000
1553843658734.3798828125,32,26.3100000000,A01A3A,5,1553843647000
1553843658750.0000000000,32,28.9400000000,A01A3A,5,1553843647000
1553843658765.6201171875,32,30.5200000000,A01A3A,5,1553843647000
1553843658781.2500000000,32,31.2900000000,A01A3A,5,1553843647000
1553843658796.8798828125,32,31.3000000000,A01A3A,5,1553843647000
1553843658812.5000000000,32,30.5700000000,A01A3A,5,1553843647000
1553843658828.1201171875,32,29.2900000000,A01A3A,5,1553843647000
1553843658843.7500000000,32,27.7200000000,A01A3A,5,1553843647000
1553843658859.3798828125,32,26.1900000000,A01A3A,5,1553843647000
1553843658875.0000000000,32,24.9400000000,A01A3A,5,1553843647000
1553843658890.6201171875,32,23.9900000000,A01A3A,5,1553843647000
1553843658906.2500000000,32,23.2100000000,A01A3A,5,1553843647000
1553843658921.8798828125,32,22.3700000000,A01A3A,5,1553843647000
1553843658937.5000000000,32,21.3000000000,A01A3A,5,1553843647000
1553843658953.1201171875,32,19.9600000000,A01A3A,5,1553843647000
1553843658968.7500000000,32,18.5000000000,A01A3A,5,1553843647000
1553843658984.3798828125,32,17.1200000000,A01A3A,5,1553843647000
1553843659000.0000000000,32,15.9300000000,A01A3A,5,1553843647000
1553843659015.6201171875,32,14.8400000000,A01A3A,5,1553843647000
1553843659031.2500000000,32,13.5400000000,A01A3A,5,1553843647000
1553843659046.8798828125,32,11.5400000000,A01A3A,5,1553843647000
1553843659062.5000000000,32,8.4500000000,A01A3A,5,1553843647000
1553843659078.1201171875,32,4.1600000000,A01A3A,5,1553843647000
1553843659093.7500000000,32,-1.0600000000,A01A3A,5,1553843647000
1553843659109.3798828125,32,-6.6200000000,A01A3A,5,1553843647000
1553843659125.0000000000,32,-11.8000000000,A01A3A,5,1553843647000
1553843659140.6201171875,32,-16.1300000000,A01A3A,5,1553843647000
1553843659156.2500000000,32,-19.4700000000,A01A3A,5,1553843647000
1553843659171.8798828125,32,-22.0900000000,A01A3A,5,1553843647000
1553843659187.5000000000,32,-24.5300000000,A01A3A,5,1553843647000
1553843659203.1201171875,32,-27.4400000000,A01A3A,5,1553843647000
1553843659218.7500000000,32,-31.3000000000,A01A3A,5,1553843647000
1553843659234.3798828125,32,-36.2600000000,A01A3A,5,1553843647000
1553843659250.0000000000,32,-42.0100000000,A01A3A,5,1553843647000
1553843659265.6201171875,32,-47.6000000000,A01A3A,5,1553843647000
1553843659281.2500000000,32,-51.7000000000,A01A3A,5,1553843647000
1553843659296.8798828125,32,-52.8000000000,A01A3A,5,1553843647000
1553843659312.5000000000,32,-49.8100000000,A01A3A,5,1553843647000
1553843659328.1201171875,32,-42.5000000000,A01A3A,5,1553843647000
1553843659343.7500000000,32,-31.6700000000,A01A3A,5,1553843647000
1553843659359.3798828125,32,-18.9300000000,A01A3A,5,1553843647000
1553843659375.0000000000,32,-6.2200000000,A01A3A,5,1553843647000
1553843659390.6201171875,32,4.8800000000,A01A3A,5,1553843647000
1553843659406.2500000000,32,13.5100000000,A01A3A,5,1553843647000
1553843659421.8798828125,32,19.6500000000,A01A3A,5,1553843647000
1553843659437.5000000000,32,23.7700000000,A01A3A,5,1553843647000
1553843659453.1201171875,32,26.5100000000,A01A3A,5,1553843647000
1553843659468.7500000000,32,28.3000000000,A01A3A,5,1553843647000
1553843659484.3798828125,32,29.3300000000,A01A3A,5,1553843647000
1553843659500.0000000000,32,29.6700000000,A01A3A,5,1553843647000
1553843659515.6201171875,32,29.3700000000,A01A3A,5,1553843647000
1553843659531.2500000000,32,28.6300000000,A01A3A,5,1553843647000
1553843659546.8798828125,32,27.7700000000,A01A3A,5,1553843647000
1553843659562.5000000000,32,27.0900000000,A01A3A,5,1553843647000
1553843659578.1201171875,32,26.7200000000,A01A3A,5,1553843647000
1553843659593.7500000000,32,26.6000000000,A01A3A,5,1553843647000
1553843659609.3798828125,32,26.4500000000,A01A3A,5,1553843647000
1553843659625.0000000000,32,25.9400000000,A01A3A,5,1553843647000
1553843659640.6201171875,32,24.8600000000,A01A3A,5,1553843647000
1553843659656.2500000000,32,23.2200000000,A01A3A,5,1553843647000
1553843659671.8798828125,32,21.3000000000,A01A3A,5,1553843647000
1553843659687.5000000000,32,19.4500000000,A01A3A,5,1553843647000
1553843659703.1201171875,32,17.9000000000,A01A3A,5,1553843647000
1553843659718.7500000000,32,16.6600000000,A01A3A,5,1553843647000
1553843659734.3798828125,32,15.4500000000,A01A3A,5,1553843647000
1553843659750.0000000000,32,13.8200000000,A01A3A,5,1553843647000
1553843659765.6201171875,32,11.3500000000,A01A3A,5,1553843647000
1553843659781.2500000000,32,7.8700000000,A01A3A,5,1553843647000
1553843659796.8798828125,32,3.4600000000,A01A3A,5,1553843647000
1553843659812.5000000000,32,-1.5300000000,A01A3A,5,1553843647000
1553843659828.1201171875,32,-6.6000000000,A01A3A,5,1553843647000
1553843659843.7500000000,32,-11.2700000000,A01A3A,5,1553843647000
1553843659859.3798828125,32,-15.2200000000,A01A3A,5,1553843647000
1553843659875.0000000000,32,-18.3300000000,A01A3A,5,1553843647000
1553843659890.6201171875,32,-20.7400000000,A01A3A,5,1553843647000
1553843659906.2500000000,32,-22.8300000000,A01A3A,5,1553843647000
1553843659921.8798828125,32,-25.1100000000,A01A3A,5,1553843647000
1553843659937.5000000000,32,-28.1300000000,A01A3A,5,1553843647000
1553843659953.1201171875,32,-32.3200000000,A01A3A,5,1553843647000
1553843659968.7500000000,32,-37.7000000000,A01A3A,5,1553843647000
1553843659984.3798828125,32,-43.7700000000,A01A3A,5,1553843647000
1553843660000.0000000000,32,-49.4300000000,A01A3A,5,1553843647000
1553843660015.6201171875,32,-53.2200000000,A01A3A,5,1553843647000
1553843660031.2500000000,32,-53.7400000000,A01A3A,5,1553843647000
1553843660046.8798828125,32,-50.1300000000,A01A3A,5,1553843647000
1553843660062.5000000000,32,-42.3800000000,A01A3A,5,1553843647000
1553843660078.1201171875,32,-31.4800000000,A01A3A,5,1553843647000
1553843660093.7500000000,32,-18.9900000000,A01A3A,5,1553843647000
1553843660109.3798828125,32,-6.6300000000,A01A3A,5,1553843647000
1553843660125.0000000000,32,4.2900000000,A01A3A,5,1553843647000
1553843660140.6201171875,32,13.0700000000,A01A3A,5,1553843647000
1553843660156.2500000000,32,19.6300000000,A01A3A,5,1553843647000
1553843660171.8798828125,32,24.1600000000,A01A3A,5,1553843647000
1553843660187.5000000000,32,26.9800000000,A01A3A,5,1553843647000
1553843660203.1201171875,32,28.3300000000,A01A3A,5,1553843647000
1553843660218.7500000000,32,28.4400000000,A01A3A,5,1553843647000
1553843660234.3798828125,32,27.5500000000,A01A3A,5,1553843647000
1553843660250.0000000000,32,26.0300000000,A01A3A,5,1553843647000
1553843660265.6201171875,32,24.3100000000,A01A3A,5,1553843647000
1553843660281.2500000000,32,22.7800000000,A01A3A,5,1553843647000
1553843660296.8798828125,32,21.6700000000,A01A3A,5,1553843647000
1553843660312.5000000000,32,21.0300000000,A01A3A,5,1553843647000
1553843660328.1201171875,32,20.5900000000,A01A3A,5,1553843647000
1553843660343.7500000000,32,20.0400000000,A01A3A,5,1553843647000
1553843660359.3798828125,32,19.0300000000,A01A3A,5,1553843647000
1553843660375.0000000000,32,17.4600000000,A01A3A,5,1553843647000
1553843660390.6201171875,32,15.4800000000,A01A3A,5,1553843647000
1553843660406.2500000000,32,13.4800000000,A01A3A,5,1553843647000
1553843660421.8798828125,32,11.8800000000,A01A3A,5,1553843647000
1553843660437.5000000000,32,10.9400000000,A01A3A,5,1553843647000
1553843660453.1201171875,32,10.4700000000,A01A3A,5,1553843647000
1553843660468.7500000000,32,9.9600000000,A01A3A,5,1553843647000
1553843660484.3798828125,32,8.7300000000,A01A3A,5,1553843647000
1553843660500.0000000000,32,6.3400000000,A01A3A,5,1553843647000
1553843660515.6201171875,32,2.8400000000,A01A3A,5,1553843647000
1553843660531.2500000000,32,-1.2700000000,A01A3A,5,1553843647000
1553843660546.8798828125,32,-5.1700000000,A01A3A,5,1553843647000
1553843660562.5000000000,32,-8.1700000000,A01A3A,5,1553843647000
1553843660578.1201171875,32,-9.9800000000,A01A3A,5,1553843647000
1553843660593.7500000000,32,-10.8600000000,A01A3A,5,1553843647000
1553843660609.3798828125,32,-11.4300000000,A01A3A,5,1553843647000
1553843660625.0000000000,32,-12.4700000000,A01A3A,5,1553843647000
1553843660640.6201171875,32,-14.5900000000,A01A3A,5,1553843647000
1553843660656.2500000000,32,-18.0400000000,A01A3A,5,1553843647000
1553843660671.8798828125,32,-22.7200000000,A01A3A,5,1553843647000
1553843660687.5000000000,32,-28.1100000000,A01A3A,5,1553843647000
1553843660703.1201171875,32,-33.3400000000,A01A3A,5,1553843647000
1553843660718.7500000000,32,-37.3000000000,A01A3A,5,1553843647000
1553843660734.3798828125,32,-38.8100000000,A01A3A,5,1553843647000
1553843660750.0000000000,32,-36.9400000000,A01A3A,5,1553843647000
1553843660765.6201171875,32,-31.4400000000,A01A3A,5,1553843647000
1553843660781.2500000000,32,-22.8700000000,A01A3A,5,1553843647000
1553843660796.8798828125,32,-12.5300000000,A01A3A,5,1553843647000
1553843660812.5000000000,32,-2.0300000000,A01A3A,5,1553843647000
1553843660828.1201171875,32,7.2400000000,A01A3A,5,1553843647000
1553843660843.7500000000,32,14.4700000000,A01A3A,5,1553843647000
1553843660859.3798828125,32,19.5500000000,A01A3A,5,1553843647000
1553843660875.0000000000,32,22.8200000000,A01A3A,5,1553843647000
1553843660890.6201171875,32,24.7300000000,A01A3A,5,1553843647000
1553843660906.2500000000,32,25.5200000000,A01A3A,5,1553843647000
1553843660921.8798828125,32,25.2600000000,A01A3A,5,1553843647000
1553843660937.5000000000,32,23.9900000000,A01A3A,5,1553843647000
1553843660953.1201171875,32,21.8800000000,A01A3A,5,1553843647000
1553843660968.7500000000,32,19.3900000000,A01A3A,5,1553843647000
1553843660984.3798828125,32,17.0600000000,A01A3A,5,1553843647000
1553843661000.0000000000,32,15.3900000000,A01A3A,5,1553843647000
1553843661015.6201171875,32,14.5900000000,A01A3A,5,1553843647000
1553843661031.2500000000,32,14.5300000000,A01A3A,5,1553843647000
1553843661046.8798828125,32,14.8100000000,A01A3A,5,1553843647000
1553843661062.5000000000,32,15.0100000000,A01A3A,5,1553843647000
1553843661078.1201171875,32,14.9000000000,A01A3A,5,1553843647000
1553843661093.7500000000,32,14.4700000000,A01A3A,5,1553843647000
1553843661109.3798828125,32,13.9500000000,A01A3A,5,1553843647000
1553843661125.0000000000,32,13.6000000000,A01A3A,5,1553843647000
1553843661140.6201171875,32,13.5200000000,A01A3A,5,1553843647000
1553843661156.2500000000,32,13.5500000000,A01A3A,5,1553843647000
1553843661171.8798828125,32,13.2700000000,A01A3A,5,1553843647000
1553843661187.5000000000,32,12.1500000000,A01A3A,5,1553843647000
1553843661203.1201171875,32,9.8200000000,A01A3A,5,1553843647000
1553843661218.7500000000,32,6.2600000000,A01A3A,5,1553843647000
1553843661234.3798828125,32,1.7700000000,A01A3A,5,1553843647000
1553843661250.0000000000,32,-3.0500000000,A01A3A,5,1553843647000
1553843661265.6201171875,32,-7.5700000000,A01A3A,5,1553843647000
1553843661281.2500000000,32,-11.3200000000,A01A3A,5,1553843647000
1553843661296.8798828125,32,-14.1200000000,A01A3A,5,1553843647000
1553843661312.5000000000,32,-16.1500000000,A01A3A,5,1553843647000
1553843661328.1201171875,32,-17.8200000000,A01A3A,5,1553843647000
1553843661343.7500000000,32,-19.7200000000,A01A3A,5,1553843647000
1553843661359.3798828125,32,-22.4400000000,A01A3A,5,1553843647000
1553843661375.0000000000,32,-26.3500000000,A01A3A,5,1553843647000
1553843661390.6201171875,32,-31.4300000000,A01A3A,5,1553843647000
1553843661406.2500000000,32,-37.0300000000,A01A3A,5,1553843647000
1553843661421.8798828125,32,-41.9700000000,A01A3A,5,1553843647000
1553843661437.5000000000,32,-44.7500000000,A01A3A,5,1553843647000
1553843661453.1201171875,32,-44.0700000000,A01A3A,5,1553843647000
1553843661468.7500000000,32,-39.2700000000,A01A3A,5,1553843647000
1553843661484.3798828125,32,-30.6600000000,A01A3A,5,1553843647000
1553843661500.0000000000,32,-19.4800000000,A01A3A,5,1553843647000
1553843661515.6201171875,32,-7.4600000000,A01A3A,5,1553843647000
1553843661531.2500000000,32,3.7500000000,A01A3A,5,1553843647000
1553843661546.8798828125,32,13.1000000000,A01A3A,5,1553843647000
1553843661562.5000000000,32,20.2300000000,A01A3A,5,1553843647000
1553843661578.1201171875,32,25.4000000000,A01A3A,5,1553843647000
1553843661593.7500000000,32,29.0900000000,A01A3A,5,1553843647000
1553843661609.3798828125,32,31.7400000000,A01A3A,5,1553843647000
1553843661625.0000000000,32,33.5400000000,A01A3A,5,1553843647000
1553843661640.6201171875,32,34.4700000000,A01A3A,5,1553843647000
1553843661656.2500000000,32,34.5100000000,A01A3A,5,1553843647000
1553843661671.8798828125,32,33.7600000000,A01A3A,5,1553843647000
1553843661687.5000000000,32,32.4700000000,A01A3A,5,1553843647000
1553843661703.1201171875,32,30.9900000000,A01A3A,5,1553843647000
1553843661718.7500000000,32,29.6600000000,A01A3A,5,1553843647000
1553843661734.3798828125,32,28.6800000000,A01A3A,5,1553843647000
1553843661750.0000000000,32,28.0400000000,A01A3A,5,1553843647000
1553843661765.6201171875,32,27.5500000000,A01A3A,5,1553843647000
1553843661781.2500000000,32,26.9400000000,A01A3A,5,1553843647000
1553843661796.8798828125,32,26.0000000000,A01A3A,5,1553843647000
1553843661812.5000000000,32,24.7000000000,A01A3A,5,1553843647000
1553843661828.1201171875,32,23.1800000000,A01A3A,5,1553843647000
1553843661843.7500000000,32,21.7100000000,A01A3A,5,1553843647000
1553843661859.3798828125,32,20.4700000000,A01A3A,5,1553843647000
1553843661875.0000000000,32,19.4300000000,A01A3A,5,1553843647000
1553843661890.6201171875,32,18.2400000000,A01A3A,5,1553843647000
1553843661906.2500000000,32,16.3500000000,A01A3A,5,1553843647000
1553843661921.8798828125,32,13.2300000000,A01A3A,5,1553843647000
1553843661937.5000000000,32,8.7800000000,A01A3A,5,1553843647000
1553843661953.1201171875,32,3.3600000000,A01A3A,5,1553843647000
1553843661968.7500000000,32,-2.2400000000,A01A3A,5,1553843647000
1553843661984.3798828125,32,-7.1500000000,A01A3A,5,1553843647000
1553843662000.0000000000,32,-10.8100000000,A01A3A,5,1553843647000
1553843662015.6201171875,32,-13.2000000000,A01A3A,5,1553843647000
1553843662031.2500000000,32,-14.8100000000,A01A3A,5,1553843647000
1553843662046.8798828125,32,-16.3900000000,A01A3A,5,1553843647000
1553843662062.5000000000,32,-18.6600000000,A01A3A,5,1553843647000
1553843662078.1201171875,32,-22.1100000000,A01A3A,5,1553843647000
1553843662093.7500000000,32,-26.8800000000,A01A3A,5,1553843647000
1553843662109.3798828125,32,-32.6700000000,A01A3A,5,1553843647000
1553843662125.0000000000,32,-38.7100000000,A01A3A,5,1553843647000
1553843662140.6201171875,32,-43.8600000000,A01A3A,5,1553843647000
1553843662156.2500000000,32,-46.7700000000,A01A3A,5,1553843647000
1553843662171.8798828125,32,-46.2500000000,A01A3A,5,1553843647000
1553843662187.5000000000,32,-41.7700000000,A01A3A,5,1553843647000
1553843662203.1201171875,32,-33.6500000000,A01A3A,5,1553843647000
1553843662218.7500000000,32,-23.0900000000,A01A3A,5,1553843647000
1553843662234.3798828125,32,-11.7100000000,A01A3A,5,1553843647000
1553843662250.0000000000,32,-1.0800000000,A01A3A,5,1553843647000
1553843662265.6201171875,32,7.7900000000,A01A3A,5,1553843647000
1553843662281.2500000000,32,14.5100000000,A01A3A,5,1553843647000
1553843662296.8798828125,32,19.1600000000,A01A3A,5,1553843647000
1553843662312.5000000000,32,22.0300000000,A01A3A,5,1553843647000
1553843662328.1201171875,32,23.3600000000,A01A3A,5,1553843647000
1553843662343.7500000000,32,23.4000000000,A01A3A,5,1553843647000
1553843662359.3798828125,32,22.4800000000,A01A3A,5,1553843647000
1553843662375.0000000000,32,21.0200000000,A01A3A,5,1553843647000
1553843662390.6201171875,32,19.5300000000,A01A3A,5,1553843647000
1553843662406.2500000000,32,18.4100000000,A01A3A,5,1553843647000
1553843662421.8798828125,32,17.8500000000,A01A3A,5,1553843647000
1553843662437.5000000000,32,17.7300000000,A01A3A,5,1553843647000
1553843662453.1201171875,32,17.8000000000,A01A3A,5,1553843647000
1553843662468.7500000000,32,17.7700000000,A01A3A,5,1553843647000
1553843662484.3798828125,32,17.4400000000,A01A3A,5,1553843647000
1553843662500.0000000000,32,16.7600000000,A01A3A,5,1553843647000
1553843662515.6201171875,32,15.8200000000,A01A3A,5,1553843647000
1553843662531.2500000000,32,14.7700000000,A01A3A,5,1553843647000
1553843662546.8798828125,32,13.7800000000,A01A3A,5,1553843647000
1553843662562.5000000000,32,12.9300000000,A01A3A,5,1553843647000
1553843662578.1201171875,32,12.0800000000,A01A3A,5,1553843647000
1553843662593.7500000000,32,10.9900000000,A01A3A,5,1553843647000
1553843662609.3798828125,32,9.2400000000,A01A3A,5,1553843647000
1553843662625.0000000000,32,6.5300000000,A01A3A,5,1553843647000
1553843662640.6201171875,32,2.8100000000,A01A3A,5,1553843647000
1553843662656.2500000000,32,-1.6400000000,A01A3A,5,1553843647000
1553843662671.8798828125,32,-6.2700000000,A01A3A,5,1553843647000
1553843662687.5000000000,32,-10.4500000000,A01A3A,5,1553843647000
1553843662703.1201171875,32,-13.7500000000,A01A3A,5,1553843647000
1553843662718.7500000000,32,-16.1100000000,A01A3A,5,1553843647000
1553843662734.3798828125,32,-17.8200000000,A01A3A,5,1553843647000
1553843662750.0000000000,32,-19.4300000000,A01A3A,5,1553843647000
1553843662765.6201171875,32,-21.5300000000,A01A3A,5,1553843647000
1553843662781.2500000000,32,-24.6100000000,A01A3A,5,1553843647000
1553843662796.8798828125,32,-28.8200000000,A01A3A,5,1553843647000
1553843662812.5000000000,32,-33.9000000000,A01A3A,5,1553843647000
1553843662828.1201171875,32,-39.0300000000,A01A3A,5,1553843647000
1553843662843.7500000000,32,-42.9400000000,A01A3A,5,1553843647000
1553843662859.3798828125,32,-44.2400000000,A01A3A,5,1553843647000
1553843662875.0000000000,32,-41.8800000000,A01A3A,5,1553843647000
1553843662890.6201171875,32,-35.5700000000,A01A3A,5,1553843647000
1553843662906.2500000000,32,-26.0300000000,A01A3A,5,1553843647000
1553843662921.8798828125,32,-14.7000000000,A01A3A,5,1553843647000
1553843662937.5000000000,32,-3.3600000000,A01A3A,5,1553843647000
1553843662953.1201171875,32,6.5100000000,A01A3A,5,1553843647000
1553843662968.7500000000,32,14.0700000000,A01A3A,5,1553843647000
1553843662984.3798828125,32,19.2300000000,A01A3A,5,1553843647000
1553843663000.0000000000,32,22.3600000000,A01A3A,5,1553843647000
1553843663015.6201171875,32,24.0400000000,A01A3A,5,1553843647000
1553843663031.2500000000,32,24.7200000000,A01A3A,5,1553843647000
1553843663046.8798828125,32,24.6800000000,A01A3A,5,1553843647000
1553843663062.5000000000,32,24.0500000000,A01A3A,5,1553843647000
1553843663078.1201171875,32,22.9700000000,A01A3A,5,1553843647000
1553843663093.7500000000,32,21.5700000000,A01A3A,5,1553843647000
1553843663109.3798828125,32,20.0300000000,A01A3A,5,1553843647000
1553843663125.0000000000,32,18.5700000000,A01A3A,5,1553843647000
1553843663140.6201171875,32,17.3600000000,A01A3A,5,1553843647000
1553843663156.2500000000,32,16.4900000000,A01A3A,5,1553843647000
1553843663171.8798828125,32,15.9500000000,A01A3A,5,1553843647000
1553843663187.5000000000,32,15.6500000000,A01A3A,5,1553843647000
1553843663203.1201171875,32,15.4000000000,A01A3A,5,1553843647000
1553843663218.7500000000,32,14.9800000000,A01A3A,5,1553843647000
1553843663234.3798828125,32,14.1900000000,A01A3A,5,1553843647000
1553843663250.0000000000,32,12.8600000000,A01A3A,5,1553843647000
1553843663265.6201171875,32,10.9200000000,A01A3A,5,1553843647000
1553843663281.2500000000,32,8.3100000000,A01A3A,5,1553843647000
1553843663296.8798828125,32,5.0900000000,A01A3A,5,1553843647000
1553843663312.5000000000,32,1.3800000000,A01A3A,5,1553843647000
1553843663328.1201171875,32,-2.5800000000,A01A3A,5,1553843647000
1553843663343.7500000000,32,-6.5200000000,A01A3A,5,1553843647000
1553843663359.3798828125,32,-10.1800000000,A01A3A,5,1553843647000
1553843663375.0000000000,32,-13.4400000000,A01A3A,5,1553843647000
1553843663390.6201171875,32,-16.4000000000,A01A3A,5,1553843647000
1553843663406.2500000000,32,-19.4100000000,A01A3A,5,1553843647000
1553843663421.8798828125,32,-22.9500000000,A01A3A,5,1553843647000
1553843663437.5000000000,32,-27.3300000000,A01A3A,5,1553843647000
1553843663453.1201171875,32,-32.4700000000,A01A3A,5,1553843647000
1553843663468.7500000000,32,-37.6700000000,A01A3A,5,1553843647000
1553843663484.3798828125,32,-41.7700000000,A01A3A,5,1553843647000
1553843663500.0000000000,32,-43.4600000000,A01A3A,5,1553843647000
1553843663515.6201171875,32,-41.7800000000,A01A3A,5,1553843647000
1553843663531.2500000000,32,-36.4900000000,A01A3A,5,1553843647000
1553843663546.8798828125,32,-28.1800000000,A01A3A,5,1553843647000
1553843663562.5000000000,32,-18.1100000000,A01A3A,5,1553843647000
1553843663578.1201171875,32,-7.7100000000,A01A3A,5,1553843647000
1553843663593.7500000000,32,1.7400000000,A01A3A,5,1553843647000
1553843663609.3798828125,32,9.4400000000,A01A3A,5,1553843647000
1553843663625.0000000000,32,15.0400000000,A01A3A,5,1553843647000
1553843663640.6201171875,32,18.5900000000,A01A3A,5,1553843647000
1553843663656.2500000000,32,20.3700000000,A01A3A,5,1553843647000
1553843663671.8798828125,32,20.7600000000,A01A3A,5,1553843647000
1553843663687.5000000000,32,20.2200000000,A01A3A,5,1553843647000
1553843663703.1201171875,32,19.1800000000,A01A3A,5,1553843647000
1553843663718.7500000000,32,18.0200000000,A01A3A,5,1553843647000
1553843663734.3798828125,32,16.9700000000,A01A3A,5,1553843647000
1553843663750.0000000000,32,16.0900000000,A01A3A,5,1553843647000
1553843663765.6201171875,32,15.3300000000,A01A3A,5,1553843647000
1553843663781.2500000000,32,14.5700000000,A01A3A,5,1553843647000
1553843663796.8798828125,32,13.7300000000,A01A3A,5,1553843647000
1553843663812.5000000000,32,12.7600000000,A01A3A,5,1553843647000
1553843663828.1201171875,32,11.7500000000,A01A3A,5,1553843647000
1553843663843.7500000000,32,10.8100000000,A01A3A,5,1553843647000
1553843663859.3798828125,32,10.1000000000,A01A3A,5,1553843647000
1553843663875.0000000000,32,9.7000000000,A01A3A,5,1553843647000
1553843663890.6201171875,32,9.6100000000,A01A3A,5,1553843647000
1553843663906.2500000000,32,9.6600000000,A01A3A,5,1553843647000
1553843663921.8798828125,32,9.4100000000,A01A3A,5,1553843647000
1553843663937.5000000000,32,8.4000000000,A01A3A,5,1553843647000
1553843663953.1201171875,32,6.1700000000,A01A3A,5,1553843647000
1553843663968.7500000000,32,2.6000000000,A01A3A,5,1553843647000
1553843663984.3798828125,32,-2.1000000000,A01A3A,5,1553843647000
1553843664000.0000000000,32,-7.3800000000,A01A3A,5,1553843647000
1553843664015.6201171875,32,-12.5700000000,A01A3A,5,1553843647000
1553843664031.2500000000,32,-17.1200000000,A01A3A,5,1553843647000
1553843664046.8798828125,32,-20.7400000000,A01A3A,5,1553843647000
1553843664062.5000000000,32,-23.4600000000,A01A3A,5,1553843647000
1553843664078.1201171875,32,-25.5600000000,A01A3A,5,1553843647000
1553843664093.7500000000,32,-27.5200000000,A01A3A,5,1553843647000
1553843664109.3798828125,32,-29.9100000000,A01A3A,5,1553843647000
1553843664125.0000000000,32,-33.2800000000,A01A3A,5,1553843647000
1553843664140.6201171875,32,-37.8200000000,A01A3A,5,1553843647000
1553843664156.2500000000,32,-43.1400000000,A01A3A,5,1553843647000
1553843664171.8798828125,32,-48.0800000000,A01A3A,5,1553843647000
1553843664187.5000000000,32,-50.8800000000,A01A3A,5,1553843647000
1553843664203.1201171875,32,-49.7700000000,A01A3A,5,1553843647000
1553843664218.7500000000,32,-43.6500000000,A01A3A,5,1553843647000
1553843664234.3798828125,32,-32.6900000000,A01A3A,5,1553843647000
1553843664250.0000000000,32,-18.3300000000,A01A3A,5,1553843647000
1553843664265.6201171875,32,-2.8900000000,A01A3A,5,1553843647000
1553843664281.2500000000,32,11.2800000000,A01A3A,5,1553843647000
1553843664296.8798828125,32,22.5500000000,A01A3A,5,1553843647000
1553843664312.5000000000,32,30.2900000000,A01A3A,5,1553843647000
1553843664328.1201171875,32,34.8600000000,A01A3A,5,1553843647000
1553843664343.7500000000,32,37.0400000000,A01A3A,5,1553843647000
1553843664359.3798828125,32,37.7200000000,A01A3A,5,1553843647000
1553843664375.0000000000,32,37.4900000000,A01A3A,5,1553843647000
1553843664390.6201171875,32,36.7100000000,A01A3A,5,1553843647000
1553843664406.2500000000,32,35.5500000000,A01A3A,5,1553843647000
1553843664421.8798828125,32,34.1100000000,A01A3A,5,1553843647000
1553843664437.5000000000,32,32.4800000000,A01A3A,5,1553843647000
1553843664453.1201171875,32,30.7000000000,A01A3A,5,1553843647000
1553843664468.7500000000,32,28.8500000000,A01A3A,5,1553843647000
1553843664484.3798828125,32,26.9400000000,A01A3A,5,1553843647000
1553843664500.0000000000,32,25.0400000000,A01A3A,5,1553843647000
1553843664515.6201171875,32,23.2500000000,A01A3A,5,1553843647000
1553843664531.2500000000,32,21.7400000000,A01A3A,5,1553843647000
1553843664546.8798828125,32,20.6600000000,A01A3A,5,1553843647000
1553843664562.5000000000,32,20.0500000000,A01A3A,5,1553843647000
1553843664578.1201171875,32,19.7500000000,A01A3A,5,1553843647000
1553843664593.7500000000,32,19.3900000000,A01A3A,5,1553843647000
1553843664609.3798828125,32,18.4500000000,A01A3A,5,1553843647000
1553843664625.0000000000,32,16.3800000000,A01A3A,5,1553843647000
1553843664640.6201171875,32,12.8500000000,A01A3A,5,1553843647000
1553843664656.2500000000,32,7.8600000000,A01A3A,5,1553843647000
1553843664671.8798828125,32,1.7600000000,A01A3A,5,1553843647000
1553843664687.5000000000,32,-4.7700000000,A01A3A,5,1553843647000
1553843664703.1201171875,32,-11.0300000000,A01A3A,5,1553843647000
1553843664718.7500000000,32,-16.4600000000,A01A3A,5,1553843647000
1553843664734.3798828125,32,-20.8500000000,A01A3A,5,1553843647000
1553843664750.0000000000,32,-24.3900000000,A01A3A,5,1553843647000
1553843664765.6201171875,32,-27.5400000000,A01A3A,5,1553843647000
1553843664781.2500000000,32,-30.8700000000,A01A3A,5,1553843647000
1553843664796.8798828125,32,-34.7800000000,A01A3A,5,1553843647000
1553843664812.5000000000,32,-39.3100000000,A01A3A,5,1553843647000
1553843664828.1201171875,32,-43.9000000000,A01A3A,5,1553843647000
1553843664843.7500000000,32,-47.5100000000,A01A3A,5,1553843647000
1553843664859.3798828125,32,-48.8200000000,A01A3A,5,1553843647000
1553843664875.0000000000,32,-46.7400000000,A01A3A,5,1553843647000
1553843664890.6201171875,32,-40.8200000000,A01A3A,5,1553843647000
1553843664906.2500000000,32,-31.5500000000,A01A3A,5,1553843647000
1553843664921.8798828125,32,-20.2300000000,A01A3A,5,1553843647000
1553843664937.5000000000,32,-8.6100000000,A01A3A,5,1553843647000
1553843664953.1201171875,32,1.7000000000,A01A3A,5,1553843647000
1553843664968.7500000000,32,9.7200000000,A01A3A,5,1553843647000
1553843664984.3798828125,32,15.2300000000,A01A3A,5,1553843647000
1553843665000.0000000000,32,18.6400000000,A01A3A,5,1553843647000
1553843665015.6201171875,32,20.5700000000,A01A3A,5,1553843647000
1553843665031.2500000000,32,21.5700000000,A01A3A,5,1553843647000
1553843665046.8798828125,32,21.8800000000,A01A3A,5,1553843647000
1553843665062.5000000000,32,21.5100000000,A01A3A,5,1553843647000
1553843665078.1201171875,32,20.3600000000,A01A3A,5,1553843647000
1553843665093.7500000000,32,18.4900000000,A01A3A,5,1553843647000
1553843665109.3798828125,32,16.1100000000,A01A3A,5,1553843647000
1553843665125.0000000000,32,13.6200000000,A01A3A,5,1553843647000
1553843665140.6201171875,32,11.4600000000,A01A3A,5,1553843647000
1553843665156.2500000000,32,9.9300000000,A01A3A,5,1553843647000
1553843665171.8798828125,32,9.1600000000,A01A3A,5,1553843647000
1553843665187.5000000000,32,9.0100000000,A01A3A,5,1553843647000
1553843665203.1201171875,32,9.1900000000,A01A3A,5,1553843647000
1553843665218.7500000000,32,9.2800000000,A01A3A,5,1553843647000
1553843665234.3798828125,32,8.9800000000,A01A3A,5,1553843647000
1553843665250.0000000000,32,8.0600000000,A01A3A,5,1553843647000
1553843665265.6201171875,32,6.5100000000,A01A3A,5,1553843647000
1553843665281.2500000000,32,4.4400000000,A01A3A,5,1553843647000
1553843665296.8798828125,32,1.9900000000,A01A3A,5,1553843647000
1553843665312.5000000000,32,-0.7000000000,A01A3A,5,1553843647000
1553843665328.1201171875,32,-3.6200000000,A01A3A,5,1553843647000
1553843665343.7500000000,32,-6.7500000000,A01A3A,5,1553843647000
1553843665359.3798828125,32,-10.1200000000,A01A3A,5,1553843647000
1553843665375.0000000000,32,-13.6900000000,A01A3A,5,1553843647000
1553843665390.6201171875,32,-17.4000000000,A01A3A,5,1553843647000
1553843665406.2500000000,32,-21.2500000000,A01A3A,5,1553843647000
1553843665421.8798828125,32,-25.3200000000,A01A3A,5,1553843647000
1553843665437.5000000000,32,-29.7100000000,A01A3A,5,1553843647000
1553843665453.1201171875,32,-34.3100000000,A01A3A,5,1553843647000
1553843665468.7500000000,32,-38.5300000000,A01A3A,5,1553843647000
1553843665484.3798828125,32,-41.3300000000,A01A3A,5,1553843647000
1553843665500.0000000000,32,-41.4300000000,A01A3A,5,1553843647000
1553843665515.6201171875,32,-37.8900000000,A01A3A,5,1553843647000
1553843665531.2500000000,32,-30.5800000000,A01A3A,5,1553843647000
1553843665546.8798828125,32,-20.3400000000,A01A3A,5,1553843647000
1553843665562.5000000000,32,-8.7400000000,A01A3A,5,1553843647000
1553843665578.1201171875,32,2.4800000000,A01A3A,5,1553843647000
1553843665593.7500000000,32,11.9800000000,A01A3A,5,1553843647000
1553843665609.3798828125,32,19.1500000000,A01A3A,5,1553843647000
1553843665625.0000000000,32,24.0600000000,A01A3A,5,1553843647000
1553843665640.6201171875,32,27.1500000000,A01A3A,5,1553843647000
1553843665656.2500000000,32,28.8400000000,A01A3A,5,1553843647000
1553843665671.8798828125,32,29.3600000000,A01A3A,5,1553843647000
1553843665687.5000000000,32,28.8300000000,A01A3A,5,1553843647000
1553843665703.1201171875,32,27.3600000000,A01A3A,5,1553843647000
1553843665718.7500000000,32,25.2200000000,A01A3A,5,1553843647000
1553843665734.3798828125,32,22.8200000000,A01A3A,5,1553843647000
1553843665750.0000000000,32,20.5900000000,A01A3A,5,1553843647000
1553843665765.6201171875,32,18.8800000000,A01A3A,5,1553843647000
1553843665781.2500000000,32,17.8200000000,A01A3A,5,1553843647000
1553843665796.8798828125,32,17.3000000000,A01A3A,5,1553843647000
1553843665812.5000000000,32,17.1600000000,A01A3A,5,1553843647000
1553843665828.1201171875,32,17.1300000000,A01A3A,5,1553843647000
1553843665843.7500000000,32,17.0800000000,A01A3A,5,1553843647000
1553843665859.3798828125,32,16.8900000000,A01A3A,5,1553843647000
1553843665875.0000000000,32,16.5100000000,A01A3A,5,1553843647000
1553843665890.6201171875,32,15.8200000000,A01A3A,5,1553843647000
1553843665906.2500000000,32,14.6100000000,A01A3A,5,1553843647000
1553843665921.8798828125,32,12.6700000000,A01A3A,5,1553843647000
1553843665937.5000000000,32,9.9000000000,A01A3A,5,1553843647000
1553843665953.1201171875,32,6.3900000000,A01A3A,5,1553843647000
1553843665968.7500000000,32,2.4700000000,A01A3A,5,1553843647000
1553843665984.3798828125,32,-1.4300000000,A01A3A,5,1553843647000
1553843666000.0000000000,32,-4.9100000000,A01A3A,5,1553843647000
1553843666015.6201171875,32,-7.8400000000,A01A3A,5,1553843647000
1553843666031.2500000000,32,-10.4200000000,A01A3A,5,1553843647000
1553843666046.8798828125,32,-13.1600000000,A01A3A,5,1553843647000
1553843666062.5000000000,32,-16.6900000000,A01A3A,5,1553843647000
1553843666078.1201171875,32,-21.4800000000,A01A3A,5,1553843647000
1553843666093.7500000000,32,-27.6300000000,A01A3A,5,1553843647000
1553843666109.3798828125,32,-34.6900000000,A01A3A,5,1553843647000
1553843666125.0000000000,32,-41.5600000000,A01A3A,5,1553843647000
1553843666140.6201171875,32,-46.7400000000,A01A3A,5,1553843647000
1553843666156.2500000000,32,-48.6900000000,A01A3A,5,1553843647000
1553843666171.8798828125,32,-46.3500000000,A01A3A,5,1553843647000
1553843666187.5000000000,32,-39.5800000000,A01A3A,5,1553843647000
1553843666203.1201171875,32,-29.2600000000,A01A3A,5,1553843647000
1553843666218.7500000000,32,-17.0000000000,A01A3A,5,1553843647000
1553843666234.3798828125,32,-4.6700000000,A01A3A,5,1553843647000
1553843666250.0000000000,32,6.2600000000,A01A3A,5,1553843647000
1553843666265.6201171875,32,15.0000000000,A01A3A,5,1553843647000
1553843666281.2500000000,32,21.4800000000,A01A3A,5,1553843647000
1553843666296.8798828125,32,26.0500000000,A01A3A,5,1553843647000
1553843666312.5000000000,32,29.1500000000,A01A3A,5,1553843647000
1553843666328.1201171875,32,31.0500000000,A01A3A,5,1553843647000
1553843666343.7500000000,32,31.8700000000,A01A3A,5,1553843647000
1553843666359.3798828125,32,31.5700000000,A01A3A,5,1553843647000
1553843666375.0000000000,32,30.2900000000,A01A3A,5,1553843647000
1553843666390.6201171875,32,28.3300000000,A01A3A,5,1553843647000
1553843666406.2500000000,32,26.1500000000,A01A3A,5,1553843647000
1553843666421.8798828125,32,24.2600000000,A01A3A,5,1553843647000
1553843666437.5000000000,32,22.9300000000,A01A3A,5,1553843647000
1553843666453.1201171875,32,22.1900000000,A01A3A,5,1553843647000
1553843666468.7500000000,32,21.7200000000,A01A3A,5,1553843647000
1553843666484.3798828125,32,21.1000000000,A01A3A,5,1553843647000
1553843666500.0000000000,32,20.0200000000,A01A3A,5,1553843647000
1553843666515.6201171875,32,18.4400000000,A01A3A,5,1553843647000
1553843666531.2500000000,32,16.6200000000,A01A3A,5,1553843647000
1553843666546.8798828125,32,14.9300000000,A01A3A,5,1553843647000
1553843666562.5000000000,32,13.5800000000,A01A3A,5,1553843647000
1553843666578.1201171875,32,12.4500000000,A01A3A,5,1553843647000
1553843666593.7500000000,32,11.1100000000,A01A3A,5,1553843647000
1553843666609.3798828125,32,9.0100000000,A01A3A,5,1553843647000
1553843666625.0000000000,32,5.8000000000,A01A3A,5,1553843647000
1553843666640.6201171875,32,1.4900000000,A01A3A,5,1553843647000
1553843666656.2500000000,32,-3.4800000000,A01A3A,5,1553843647000
1553843666671.8798828125,32,-8.4600000000,A01A3A,5,1553843647000
1553843666687.5000000000,32,-12.8700000000,A01A3A,5,1553843647000
1553843666703.1201171875,32,-16.3500000000,A01A3A,5,1553843647000
1553843666718.7500000000,32,-18.9900000000,A01A3A,5,1553843647000
1553843666734.3798828125,32,-21.1700000000,A01A3A,5,1553843647000
1553843666750.0000000000,32,-23.4600000000,A01A3A,5,1553843647000
1553843666765.6201171875,32,-26.4400000000,A01A3A,5,1553843647000
1553843666781.2500000000,32,-30.4900000000,A01A3A,5,1553843647000
1553843666796.8798828125,32,-35.6400000000,A01A3A,5,1553843647000
1553843666812.5000000000,32,-41.5000000000,A01A3A,5,1553843647000
1553843666828.1201171875,32,-47.1400000000,A01A3A,5,1553843647000
1553843666843.7500000000,32,-51.2400000000,A01A3A,5,1553843647000
1553843666859.3798828125,32,-52.4400000000,A01A3A,5,1553843647000
1553843666875.0000000000,32,-49.7700000000,A01A3A,5,1553843647000
1553843666890.6201171875,32,-43.0900000000,A01A3A,5,1553843647000
1553843666906.2500000000,32,-33.2300000000,A01A3A,5,1553843647000
1553843666921.8798828125,32,-21.7000000000,A01A3A,5,1553843647000
1553843666937.5000000000,32,-10.3100000000,A01A3A,5,1553843647000
1553843666953.1201171875,32,-0.4800000000,A01A3A,5,1553843647000
1553843666968.7500000000,32,7.0800000000,A01A3A,5,1553843647000
1553843666984.3798828125,32,12.4000000000,A01A3A,5,1553843647000
1553843667000.0000000000,32,16.0000000000,A01A3A,5,1553843647000
1553843667015.6201171875,32,18.4700000000,A01A3A,5,1553843647000
1553843667031.2500000000,32,20.2000000000,A01A3A,5,1553843647000
1553843667046.8798828125,32,21.2500000000,A01A3A,5,1553843647000
1553843667062.5000000000,32,21.5400000000,A01A3A,5,1553843647000
1553843667078.1201171875,32,20.9800000000,A01A3A,5,1553843647000
1553843667093.7500000000,32,19.6600000000,A01A3A,5,1553843647000
1553843667109.3798828125,32,17.8800000000,A01A3A,5,1553843647000
1553843667125.0000000000,32,16.0800000000,A01A3A,5,1553843647000
1553843667140.6201171875,32,14.6900000000,A01A3A,5,1553843647000
1553843667156.2500000000,32,13.9900000000,A01A3A,5,1553843647000
1553843667171.8798828125,32,14.1100000000,A01A3A,5,1553843647000
1553843667187.5000000000,32,14.9300000000,A01A3A,5,1553843647000
1553843667203.1201171875,32,16.2200000000,A01A3A,5,1553843647000
1553843667218.7500000000,32,17.7000000000,A01A3A,5,1553843647000
1553843667234.3798828125,32,19.0800000000,A01A3A,5,1553843647000
1553843667250.0000000000,32,20.1200000000,A01A3A,5,1553843647000
1553843667265.6201171875,32,20.6200000000,A01A3A,5,1553843647000
1553843667281.2500000000,32,20.4500000000,A01A3A,5,1553843647000
1553843667296.8798828125,32,19.5000000000,A01A3A,5,1553843647000
1553843667312.5000000000,32,17.8100000000,A01A3A,5,1553843647000
1553843667328.1201171875,32,15.5100000000,A01A3A,5,1553843647000
1553843667343.7500000000,32,12.7800000000,A01A3A,5,1553843647000
1553843667359.3798828125,32,9.8500000000,A01A3A,5,1553843647000
1553843667375.0000000000,32,6.7900000000,A01A3A,5,1553843647000
1553843667390.6201171875,32,3.5200000000,A01A3A,5,1553843647000
1553843667406.2500000000,32,-0.2100000000,A01A3A,5,1553843647000
1553843667421.8798828125,32,-4.7200000000,A01A3A,5,1553843647000
1553843667437.5000000000,32,-10.1800000000,A01A3A,5,1553843647000
1553843667453.1201171875,32,-16.3400000000,A01A3A,5,1553843647000
1553843667468.7500000000,32,-22.4500000000,A01A3A,5,1553843647000
1553843667484.3798828125,32,-27.3600000000,A01A3A,5,1553843647000
1553843667500.0000000000,32,-29.7900000000,A01A3A,5,1553843647000
1553843667515.6201171875,32,-28.8300000000,A01A3A,5,1553843647000
1553843667531.2500000000,32,-24.2400000000,A01A3A,5,1553843647000
1553843667546.8798828125,32,-16.6400000000,A01A3A,5,1553843647000
1553843667562.5000000000,32,-7.3200000000,A01A3A,5,1553843647000
1553843667578.1201171875,32,2.0700000000,A01A3A,5,1553843647000
1553843667593.7500000000,32,10.1400000000,A01A3A,5,1553843647000
1553843667609.3798828125,32,16.0400000000,A01A3A,5,1553843647000
1553843667625.0000000000,32,19.6000000000,A01A3A,5,1553843647000
1553843667640.6201171875,32,21.2000000000,A01A3A,5,1553843647000
1553843667656.2500000000,32,21.4000000000,A01A3A,5,1553843647000
1553843667671.8798828125,32,20.7300000000,A01A3A,5,1553843647000
1553843667687.5000000000,32,19.4700000000,A01A3A,5,1553843647000
1553843667703.1201171875,32,17.7700000000,A01A3A,5,1553843647000
1553843667718.7500000000,32,15.7200000000,A01A3A,5,1553843647000
1553843667734.3798828125,32,13.5300000000,A01A3A,5,1553843647000
1553843667750.0000000000,32,11.4700000000,A01A3A,5,1553843647000
1553843667765.6201171875,32,9.8600000000,A01A3A,5,1553843647000
1553843667781.2500000000,32,8.9100000000,A01A3A,5,1553843647000
1553843667796.8798828125,32,8.6700000000,A01A3A,5,1553843647000
1553843667812.5000000000,32,9.0000000000,A01A3A,5,1553843647000
1553843667828.1201171875,32,9.6800000000,A01A3A,5,1553843647000
1553843667843.7500000000,32,10.4900000000,A01A3A,5,1553843647000
1553843667859.3798828125,32,11.2200000000,A01A3A,5,1553843647000
1553843667875.0000000000,32,11.7200000000,A01A3A,5,1553843647000
1553843667890.6201171875,32,11.7600000000,A01A3A,5,1553843647000
1553843667906.2500000000,32,11.1100000000,A01A3A,5,1553843647000
1553843667921.8798828125,32,9.6000000000,A01A3A,5,1553843647000
1553843667937.5000000000,32,7.1900000000,A01A3A,5,1553843647000
1553843667953.1201171875,32,4.0100000000,A01A3A,5,1553843647000
1553843667968.7500000000,32,0.3400000000,A01A3A,5,1553843647000
1553843667984.3798828125,32,-3.4900000000,A01A3A,5,1553843647000
1553843668000.0000000000,32,-7.2400000000,A01A3A,5,1553843647000
1553843668015.6201171875,32,-10.8300000000,A01A3A,5,1553843647000
1553843668031.2500000000,32,-14.3300000000,A01A3A,5,1553843647000
1553843668046.8798828125,32,-18.0000000000,A01A3A,5,1553843647000
1553843668062.5000000000,32,-22.1600000000,A01A3A,5,1553843647000
1553843668078.1201171875,32,-27.1000000000,A01A3A,5,1553843647000
1553843668093.7500000000,32,-32.8700000000,A01A3A,5,1553843647000
1553843668109.3798828125,32,-39.0400000000,A01A3A,5,1553843647000
1553843668125.0000000000,32,-44.6700000000,A01A3A,5,1553843647000
1553843668140.6201171875,32,-48.3800000000,A01A3A,5,1553843647000
1553843668156.2500000000,32,-48.7900000000,A01A3A,5,1553843647000
1553843668171.8798828125,32,-45.0800000000,A01A3A,5,1553843647000
1553843668187.5000000000,32,-37.3000000000,A01A3A,5,1553843647000
1553843668203.1201171875,32,-26.5000000000,A01A3A,5,1553843647000
1553843668218.7500000000,32,-14.3600000000,A01A3A,5,1553843647000
1553843668234.3798828125,32,-2.5900000000,A01A3A,5,1553843647000
1553843668250.0000000000,32,7.5200000000,A01A3A,5,1553843647000
1553843668265.6201171875,32,15.3400000000,A01A3A,5,1553843647000
1553843668281.2500000000,32,20.8400000000,A01A3A,5,1553843647000
1553843668296.8798828125,32,24.3400000000,A01A3A,5,1553843647000
1553843668312.5000000000,32,26.2300000000,A01A3A,5,1553843647000
1553843668328.1201171875,32,26.8900000000,A01A3A,5,1553843647000
1553843668343.7500000000,32,26.6800000000,A01A3A,5,1553843647000
1553843668359.3798828125,32,25.9100000000,A01A3A,5,1553843647000
1553843668375.0000000000,32,24.8200000000,A01A3A,5,1553843647000
1553843668390.6201171875,32,23.6100000000,A01A3A,5,1553843647000
1553843668406.2500000000,32,22.3400000000,A01A3A,5,1553843647000
1553843668421.8798828125,32,21.0300000000,A01A3A,5,1553843647000
1553843668437.5000000000,32,19.7600000000,A01A3A,5,1553843647000
1553843668453.1201171875,32,18.5900000000,A01A3A,5,1553843647000
1553843668468.7500000000,32,17.6200000000,A01A3A,5,1553843647000
1553843668484.3798828125,32,16.9100000000,A01A3A,5,1553843647000
1553843668500.0000000000,32,16.3900000000,A01A3A,5,1553843647000
1553843668515.6201171875,32,15.9100000000,A01A3A,5,1553843647000
1553843668531.2500000000,32,15.2700000000,A01A3A,5,1553843647000
1553843668546.8798828125,32,14.2600000000,A01A3A,5,1553843647000
1553843668562.5000000000,32,12.7000000000,A01A3A,5,1553843647000
1553843668578.1201171875,32,10.4400000000,A01A3A,5,1553843647000
1553843668593.7500000000,32,7.4100000000,A01A3A,5,1553843647000
1553843668609.3798828125,32,3.7100000000,A01A3A,5,1553843647000
1553843668625.0000000000,32,-0.4400000000,A01A3A,5,1553843647000
1553843668640.6201171875,32,-4.6400000000,A01A3A,5,1553843647000
1553843668656.2500000000,32,-8.4900000000,A01A3A,5,1553843647000
1553843668671.8798828125,32,-11.7200000000,A01A3A,5,1553843647000
1553843668687.5000000000,32,-14.3000000000,A01A3A,5,1553843647000
1553843668703.1201171875,32,-16.5300000000,A01A3A,5,1553843647000
1553843668718.7500000000,32,-18.9200000000,A01A3A,5,1553843647000
1553843668734.3798828125,32,-22.0600000000,A01A3A,5,1553843647000
1553843668750.0000000000,32,-26.2800000000,A01A3A,5,1553843647000
1553843668765.6201171875,32,-31.3400000000,A01A3A,5,1553843647000
1553843668781.2500000000,32,-36.4000000000,A01A3A,5,1553843647000
1553843668796.8798828125,32,-40.1200000000,A01A3A,5,1553843647000
1553843668812.5000000000,32,-41.1000000000,A01A3A,5,1553843647000
1553843668828.1201171875,32,-38.4100000000,A01A3A,5,1553843647000
1553843668843.7500000000,32,-31.9500000000,A01A3A,5,1553843647000
1553843668859.3798828125,32,-22.5500000000,A01A3A,5,1553843647000
1553843668875.0000000000,32,-11.7300000000,A01A3A,5,1553843647000
1553843668890.6201171875,32,-1.1700000000,A01A3A,5,1553843647000
1553843668906.2500000000,32,7.8000000000,A01A3A,5,1553843647000
1553843668921.8798828125,32,14.5000000000,A01A3A,5,1553843647000
1553843668937.5000000000,32,18.9500000000,A01A3A,5,1553843647000
1553843668953.1201171875,32,21.5400000000,A01A3A,5,1553843647000
1553843668968.7500000000,32,22.8100000000,A01A3A,5,1553843647000
1553843668984.3798828125,32,23.1600000000,A01A3A,5,1553843647000
1553843669000.0000000000,32,22.8200000000,A01A3A,5,1553843647000
1553843669015.6201171875,32,21.9000000000,A01A3A,5,1553843647000
1553843669031.2500000000,32,20.5200000000,A01A3A,5,1553843647000
1553843669046.8798828125,32,18.8800000000,A01A3A,5,1553843647000
1553843669062.5000000000,32,17.1900000000,A01A3A,5,1553843647000
1553843669078.1201171875,32,15.6900000000,A01A3A,5,1553843647000
1553843669093.7500000000,32,14.5300000000,A01A3A,5,1553843647000
1553843669109.3798828125,32,13.7500000000,A01A3A,5,1553843647000
1553843669125.0000000000,32,13.3000000000,A01A3A,5,1553843647000
1553843669140.6201171875,32,13.1200000000,A01A3A,5,1553843647000
1553843669156.2500000000,32,13.1200000000,A01A3A,5,1553843647000
1553843669171.8798828125,32,13.2300000000,A01A3A,5,1553843647000
1553843669187.5000000000,32,13.3000000000,A01A3A,5,1553843647000
1553843669203.1201171875,32,13.1600000000,A01A3A,5,1553843647000
1553843669218.7500000000,32,12.5700000000,A01A3A,5,1553843647000
1553843669234.3798828125,32,11.2800000000,A01A3A,5,1553843647000
1553843669250.0000000000,32,9.1600000000,A01A3A,5,1553843647000
1553843669265.6201171875,32,6.2300000000,A01A3A,5,1553843647000
1553843669281.2500000000,32,2.7100000000,A01A3A,5,1553843647000
1553843669296.8798828125,32,-1.0300000000,A01A3A,5,1553843647000
1553843669312.5000000000,32,-4.6300000000,A01A3A,5,1553843647000
1553843669328.1201171875,32,-7.8500000000,A01A3A,5,1553843647000
1553843669343.7500000000,32,-10.6900000000,A01A3A,5,1553843647000
1553843669359.3798828125,32,-13.4100000000,A01A3A,5,1553843647000
1553843669375.0000000000,32,-16.3900000000,A01A3A,5,1553843647000
1553843669390.6201171875,32,-20.0200000000,A01A3A,5,1553843647000
1553843669406.2500000000,32,-24.4100000000,A01A3A,5,1553843647000
1553843669421.8798828125,32,-29.2000000000,A01A3A,5,1553843647000
1553843669437.5000000000,32,-33.5200000000,A01A3A,5,1553843647000
1553843669453.1201171875,32,-36.2000000000,A01A3A,5,1553843647000
1553843669468.7500000000,32,-36.1100000000,A01A3A,5,1553843647000
1553843669484.3798828125,32,-32.6100000000,A01A3A,5,1553843647000
1553843669500.0000000000,32,-25.8500000000,A01A3A,5,1553843647000
1553843669515.6201171875,32,-16.7700000000,A01A3A,5,1553843647000
1553843669531.2500000000,32,-6.7600000000,A01A3A,5,1553843647000
1553843669546.8798828125,32,2.7300000000,A01A3A,5,1553843647000
1553843669562.5000000000,32,10.6700000000,A01A3A,5,1553843647000
1553843669578.1201171875,32,16.6100000000,A01A3A,5,1553843647000
1553843669593.7500000000,32,20.6100000000,A01A3A,5,1553843647000
1553843669609.3798828125,32,23.0300000000,A01A3A,5,1553843647000
1553843669625.0000000000,32,24.2400000000,A01A3A,5,1553843647000
1553843669640.6201171875,32,24.4800000000,A01A3A,5,1553843647000
1553843669656.2500000000,32,23.9300000000,A01A3A,5,1553843647000
1553843669671.8798828125,32,22.7300000000,A01A3A,5,1553843647000
1553843669687.5000000000,32,21.0500000000,A01A3A,5,1553843647000
1553843669703.1201171875,32,19.1300000000,A01A3A,5,1553843647000
1553843669718.7500000000,32,17.2200000000,A01A3A,5,1553843647000
1553843669734.3798828125,32,15.5100000000,A01A3A,5,1553843647000
1553843669750.0000000000,32,14.1700000000,A01A3A,5,1553843647000
1553843669765.6201171875,32,13.2700000000,A01A3A,5,1553843647000
1553843669781.2500000000,32,12.7700000000,A01A3A,5,1553843647000
1553843669796.8798828125,32,12.4900000000,A01A3A,5,1553843647000
1553843669812.5000000000,32,12.1700000000,A01A3A,5,1553843647000
1553843669828.1201171875,32,11.5100000000,A01A3A,5,1553843647000
1553843669843.7500000000,32,10.2300000000,A01A3A,5,1553843647000
1553843669859.3798828125,32,8.2800000000,A01A3A,5,1553843647000
1553843669875.0000000000,32,5.7100000000,A01A3A,5,1553843647000
1553843669890.6201171875,32,2.7600000000,A01A3A,5,1553843647000
1553843669906.2500000000,32,-0.2700000000,A01A3A,5,1553843647000
1553843669921.8798828125,32,-3.1400000000,A01A3A,5,1553843647000
1553843669937.5000000000,32,-5.7100000000,A01A3A,5,1553843647000
1553843669953.1201171875,32,-8.0300000000,A01A3A,5,1553843647000
1553843669968.7500000000,32,-10.3100000000,A01A3A,5,1553843647000
1553843669984.3798828125,32,-12.8700000000,A01A3A,5,1553843647000
1553843670000.0000000000,32,-16.0100000000,A01A3A,5,1553843647000
1553843670015.6201171875,32,-19.9200000000,A01A3A,5,1553843647000
1553843670031.2500000000,32,-24.5100000000,A01A3A,5,1553843647000
1553843670046.8798828125,32,-29.3300000000,A01A3A,5,1553843647000
1553843670062.5000000000,32,-33.5900000000,A01A3A,5,1553843647000
1553843670078.1201171875,32,-36.2100000000,A01A3A,5,1553843647000
1553843670093.7500000000,32,-36.1100000000,A01A3A,5,1553843647000
1553843670109.3798828125,32,-32.4200000000,A01A3A,5,1553843647000
1553843670125.0000000000,32,-24.9000000000,A01A3A,5,1553843647000
1553843670140.6201171875,32,-14.0300000000,A01A3A,5,1553843647000
1553843670156.2500000000,32,-1.1100000000,A01A3A,5,1553843647000
1553843670171.8798828125,32,12.0800000000,A01A3A,5,1553843647000
1553843670187.5000000000,32,23.7100000000,A01A3A,5,1553843647000
1553843670203.1201171875,32,32.4100000000,A01A3A,5,1553843647000
1553843670218.7500000000,32,37.6200000000,A01A3A,5,1553843647000
1553843670234.3798828125,32,39.6100000000,A01A3A,5,1553843647000
1553843670250.0000000000,32,39.2200000000,A01A3A,5,1553843647000
1553843670265.6201171875,32,37.4000000000,A01A3A,5,1553843647000
1553843670281.2500000000,32,34.8100000000,A01A3A,5,1553843647000
1553843670296.8798828125,32,31.6800000000,A01A3A,5,1553843647000
1553843670312.5000000000,32,28.0200000000,A01A3A,5,1553843647000
1553843670328.1201171875,32,23.8900000000,A01A3A,5,1553843647000
1553843670343.7500000000,32,19.5900000000,A01A3A,5,1553843647000
1553843670359.3798828125,32,15.6900000000,A01A3A,5,1553843647000
1553843670375.0000000000,32,12.7600000000,A01A3A,5,1553843647000
1553843670390.6201171875,32,11.1100000000,A01A3A,5,1553843647000
1553843670406.2500000000,32,10.6000000000,A01A3A,5,1553843647000
1553843670421.8798828125,32,10.8100000000,A01A3A,5,1553843647000
1553843670437.5000000000,32,11.1700000000,A01A3A,5,1553843647000
1553843670453.1201171875,32,11.2700000000,A01A3A,5,1553843647000
1553843670468.7500000000,32,10.8600000000,A01A3A,5,1553843647000
1553843670484.3798828125,32,9.8700000000,A01A3A,5,1553843647000
1553843670500.0000000000,32,8.2500000000,A01A3A,5,1553843647000
1553843670515.6201171875,32,5.9200000000,A01A3A,5,1553843647000
1553843670531.2500000000,32,2.8300000000,A01A3A,5,1553843647000
1553843670546.8798828125,32,-0.9400000000,A01A3A,5,1553843647000
1553843670562.5000000000,32,-5.0700000000,A01A3A,5,1553843647000
1553843670578.1201171875,32,-9.1000000000,A01A3A,5,1553843647000
1553843670593.7500000000,32,-12.5300000000,A01A3A,5,1553843647000
1553843670609.3798828125,32,-15.0400000000,A01A3A,5,1553843647000
1553843670625.0000000000,32,-16.6100000000,A01A3A,5,1553843647000
1553843670640.6201171875,32,-17.5200000000,A01A3A,5,1553843647000
1553843670656.2500000000,32,-18.3600000000,A01A3A,5,1553843647000
1553843670671.8798828125,32,-19.7900000000,A01A3A,5,1553843647000
1553843670687.5000000000,32,-22.2700000000,A01A3A,5,1553843647000
1553843670703.1201171875,32,-25.7500000000,A01A3A,5,1553843647000
1553843670718.7500000000,32,-29.5100000000,A01A3A,5,1553843647000
1553843670734.3798828125,32,-32.2000000000,A01A3A,5,1553843647000
1553843670750.0000000000,32,-32.2500000000,A01A3A,5,1553843647000
1553843670765.6201171875,32,-28.5600000000,A01A3A,5,1553843647000
1553843670781.2500000000,32,-21.0100000000,A01A3A,5,1553843647000
1553843670796.8798828125,32,-10.6500000000,A01A3A,5,1553843647000
1553843670812.5000000000,32,0.7000000000,A01A3A,5,1553843647000
1553843670828.1201171875,32,11.1300000000,A01A3A,5,1553843647000
1553843670843.7500000000,32,19.3600000000,A01A3A,5,1553843647000
1553843670859.3798828125,32,25.0300000000,A01A3A,5,1553843647000
1553843670875.0000000000,32,28.5600000000,A01A3A,5,1553843647000
1553843670890.6201171875,32,30.5400000000,A01A3A,5,1553843647000
1553843670906.2500000000,32,31.2500000000,A01A3A,5,1553843647000
1553843670921.8798828125,32,30.5400000000,A01A3A,5,1553843647000
1553843670937.5000000000,32,28.0300000000,A01A3A,5,1553843647000
1553843670953.1201171875,32,23.6200000000,A01A3A,5,1553843647000
1553843670968.7500000000,32,17.8300000000,A01A3A,5,1553843647000
1553843670984.3798828125,32,11.6700000000,A01A3A,5,1553843647000
1553843671000.0000000000,32,6.3300000000,A01A3A,5,1553843647000
1553843671015.6201171875,32,2.6700000000,A01A3A,5,1553843647000
1553843671031.2500000000,32,0.9100000000,A01A3A,5,1553843647000
1553843671046.8798828125,32,0.6600000000,A01A3A,5,1553843647000
1553843671062.5000000000,32,1.1900000000,A01A3A,5,1553843647000
1553843671078.1201171875,32,1.8400000000,A01A3A,5,1553843647000
1553843671093.7500000000,32,2.2400000000,A01A3A,5,1553843647000
1553843671109.3798828125,32,2.3700000000,A01A3A,5,1553843647000
1553843671125.0000000000,32,2.2700000000,A01A3A,5,1553843647000
1553843671140.6201171875,32,1.9900000000,A01A3A,5,1553843647000
1553843671156.2500000000,32,1.2900000000,A01A3A,5,1553843647000
1553843671171.8798828125,32,-0.1400000000,A01A3A,5,1553843647000
1553843671187.5000000000,32,-2.5500000000,A01A3A,5,1553843647000
1553843671203.1201171875,32,-5.8700000000,A01A3A,5,1553843647000
1553843671218.7500000000,32,-9.7000000000,A01A3A,5,1553843647000
1553843671234.3798828125,32,-13.3900000000,A01A3A,5,1553843647000
1553843671250.0000000000,32,-16.3900000000,A01A3A,5,1553843647000
1553843671265.6201171875,32,-18.4300000000,A01A3A,5,1553843647000
1553843671281.2500000000,32,-19.7200000000,A01A3A,5,1553843647000
1553843671296.8798828125,32,-20.8700000000,A01A3A,5,1553843647000
1553843671312.5000000000,32,-22.6400000000,A01A3A,5,1553843647000
1553843671328.1201171875,32,-25.5600000000,A01A3A,5,1553843647000
1553843671343.7500000000,32,-29.5900000000,A01A3A,5,1553843647000
1553843671359.3798828125,32,-34.0400000000,A01A3A,5,1553843647000
1553843671375.0000000000,32,-37.6800000000,A01A3A,5,1553843647000
1553843671390.6201171875,32,-39.1600000000,A01A3A,5,1553843647000
1553843671406.2500000000,32,-37.4800000000,A01A3A,5,1553843647000
1553843671421.8798828125,32,-32.4100000000,A01A3A,5,1553843647000
1553843671437.5000000000,32,-24.5400000000,A01A3A,5,1553843647000
1553843671453.1201171875,32,-15.1000000000,A01A3A,5,1553843647000
1553843671468.7500000000,32,-5.4900000000,A01A3A,5,1553843647000
1553843671484.3798828125,32,3.1300000000,A01A3A,5,1553843647000
1553843671500.0000000000,32,10.1300000000,A01A3A,5,1553843647000
1553843671515.6201171875,32,15.3700000000,A01A3A,5,1553843647000
1553843671531.2500000000,32,19.1100000000,A01A3A,5,1553843647000
1553843671546.8798828125,32,21.6600000000,A01A3A,5,1553843647000
1553843671562.5000000000,32,23.2900000000,A01A3A,5,1553843647000
1553843671578.1201171875,32,24.1200000000,A01A3A,5,1553843647000
1553843671593.7500000000,32,24.2200000000,A01A3A,5,1553843647000
1553843671609.3798828125,32,23.6700000000,A01A3A,5,1553843647000
1553843671625.0000000000,32,22.5900000000,A01A3A,5,1553843647000
1553843671640.6201171875,32,21.2200000000,A01A3A,5,1553843647000
1553843671656.2500000000,32,19.7800000000,A01A3A,5,1553843647000
1553843671671.8798828125,32,18.4900000000,A01A3A,5,1553843647000
1553843671687.5000000000,32,17.4800000000,A01A3A,5,1553843647000
1553843671703.1201171875,32,16.7500000000,A01A3A,5,1553843647000
1553843671718.7500000000,32,16.2000000000,A01A3A,5,1553843647000
1553843671734.3798828125,32,15.7400000000,A01A3A,5,1553843647000
1553843671750.0000000000,32,15.2200000000,A01A3A,5,1553843647000
1553843671765.6201171875,32,14.4900000000,A01A3A,5,1553843647000
1553843671781.2500000000,32,13.4100000000,A01A3A,5,1553843647000
1553843671796.8798828125,32,11.7900000000,A01A3A,5,1553843647000
1553843671812.5000000000,32,9.4900000000,A01A3A,5,1553843647000
1553843671828.1201171875,32,6.5000000000,A01A3A,5,1553843647000
1553843671843.7500000000,32,2.9700000000,A01A3A,5,1553843647000
1553843671859.3798828125,32,-0.7800000000,A01A3A,5,1553843647000
1553843671875.0000000000,32,-4.3600000000,A01A3A,5,1553843647000
1553843671890.6201171875,32,-7.5300000000,A01A3A,5,1553843647000
1553843671906.2500000000,32,-10.2900000000,A01A3A,5,1553843647000
1553843671921.8798828125,32,-12.8500000000,A01A3A,5,1553843647000
1553843671937.5000000000,32,-15.7000000000,A01A3A,5,1553843647000
1553843671953.1201171875,32,-19.2900000000,A01A3A,5,1553843647000
1553843671968.7500000000,32,-23.9600000000,A01A3A,5,1553843647000
1553843671984.3798828125,32,-29.6500000000,A01A3A,5,1553843647000
1553843672000.0000000000,32,-35.7600000000,A01A3A,5,1553843647000
1553843672015.6201171875,32,-41.2400000000,A01A3A,5,1553843647000
1553843672031.2500000000,32,-44.8300000000,A01A3A,5,1553843647000
1553843672046.8798828125,32,-45.4600000000,A01A3A,5,1553843647000
1553843672062.5000000000,32,-42.7000000000,A01A3A,5,1553843647000
1553843672078.1201171875,32,-36.9100000000,A01A3A,5,1553843647000
1553843672093.7500000000,32,-29.1500000000,A01A3A,5,1553843647000
1553843672109.3798828125,32,-20.7500000000,A01A3A,5,1553843647000
1553843672125.0000000000,32,-12.9100000000,A01A3A,5,1553843647000
1553843672140.6201171875,32,-6.3300000000,A01A3A,5,1553843647000
1553843672156.2500000000,32,-1.2600000000,A01A3A,5,1553843647000
1553843672171.8798828125,32,2.3900000000,A01A3A,5,1553843647000
1553843672187.5000000000,32,4.8300000000,A01A3A,5,1553843647000
1553843672203.1201171875,32,6.2500000000,A01A3A,5,1553843647000
1553843672218.7500000000,32,6.7800000000,A01A3A,5,1553843647000
1553843672234.3798828125,32,6.5600000000,A01A3A,5,1553843647000
1553843672250.0000000000,32,5.7100000000,A01A3A,5,1553843647000
1553843672265.6201171875,32,4.4300000000,A01A3A,5,1553843647000
1553843672281.2500000000,32,2.9500000000,A01A3A,5,1553843647000
1553843672296.8798828125,32,1.5300000000,A01A3A,5,1553843647000
1553843672312.5000000000,32,0.4900000000,A01A3A,5,1553843647000
1553843672328.1201171875,32,0.1100000000,A01A3A,5,1553843647000
1553843672343.7500000000,32,0.5700000000,A01A3A,5,1553843647000
1553843672359.3798828125,32,1.8800000000,A01A3A,5,1553843647000
1553843672375.0000000000,32,3.9200000000,A01A3A,5,1553843647000
1553843672390.6201171875,32,6.5100000000,A01A3A,5,1553843647000
1553843672406.2500000000,32,9.5200000000,A01A3A,5,1553843647000
1553843672421.8798828125,32,12.8600000000,A01A3A,5,1553843647000
1553843672437.5000000000,32,16.5000000000,A01A3A,5,1553843647000
1553843672453.1201171875,32,20.2400000000,A01A3A,5,1553843647000
1553843672468.7500000000,32,23.7200000000,A01A3A,5,1553843647000
1553843672484.3798828125,32,26.4300000000,A01A3A,5,1553843647000
1553843672500.0000000000,32,28.0000000000,A01A3A,5,1553843647000
1553843672515.6201171875,32,28.3900000000,A01A3A,5,1553843647000
1553843672531.2500000000,32,28.0300000000,A01A3A,5,1553843647000
1553843672546.8798828125,32,27.6200000000,A01A3A,5,1553843647000
1553843672562.5000000000,32,27.8300000000,A01A3A,5,1553843647000
1553843672578.1201171875,32,28.9200000000,A01A3A,5,1553843647000
1553843672593.7500000000,32,30.5000000000,A01A3A,5,1553843647000
1553843672609.3798828125,32,31.6400000000,A01A3A,5,1553843647000
1553843672625.0000000000,32,31.2500000000,A01A3A,5,1553843647000
1553843672640.6201171875,32,28.5600000000,A01A3A,5,1553843647000
1553843672656.2500000000,32,23.5100000000,A01A3A,5,1553843647000
1553843672671.8798828125,32,17.0300000000,A01A3A,5,1553843647000
1553843672687.5000000000,32,10.7800000000,A01A3A,5,1553843647000
1553843672703.1201171875,32,6.6800000000,A01A3A,5,1553843647000
1553843672718.7500000000,32,6.3600000000,A01A3A,5,1553843647000
1553843672734.3798828125,32,10.5300000000,A01A3A,5,1553843647000
1553843672750.0000000000,32,18.7700000000,A01A3A,5,1553843647000
1553843672765.6201171875,32,29.6100000000,A01A3A,5,1553843647000
1553843672781.2500000000,32,41.0000000000,A01A3A,5,1553843647000
1553843672796.8798828125,32,50.9700000000,A01A3A,5,1553843647000
1553843672812.5000000000,32,58.1500000000,A01A3A,5,1553843647000
1553843672828.1201171875,32,62.0500000000,A01A3A,5,1553843647000
1553843672843.7500000000,32,63.0000000000,A01A3A,5,1553843647000
1553843672859.3798828125,32,61.6800000000,A01A3A,5,1553843647000
1553843672875.0000000000,32,58.7900000000,A01A3A,5,1553843647000
1553843672890.6201171875,32,54.6900000000,A01A3A,5,1553843647000
1553843672906.2500000000,32,49.4400000000,A01A3A,5,1553843647000
1553843672921.8798828125,32,42.9100000000,A01A3A,5,1553843647000
1553843672937.5000000000,32,35.1400000000,A01A3A,5,1553843647000
1553843672953.1201171875,32,26.3700000000,A01A3A,5,1553843647000
1553843672968.7500000000,32,17.1400000000,A01A3A,5,1553843647000
1553843672984.3798828125,32,8.1000000000,A01A3A,5,1553843647000
1553843673000.0000000000,32,-0.1800000000,A01A3A,5,1553843647000
1553843673015.6201171875,32,-7.3200000000,A01A3A,5,1553843647000
1553843673031.2500000000,32,-13.2400000000,A01A3A,5,1553843647000
1553843673046.8798828125,32,-17.9700000000,A01A3A,5,1553843647000
1553843673062.5000000000,32,-21.6000000000,A01A3A,5,1553843647000
1553843673078.1201171875,32,-24.0700000000,A01A3A,5,1553843647000
1553843673093.7500000000,32,-25.2300000000,A01A3A,5,1553843647000
1553843673109.3798828125,32,-24.9800000000,A01A3A,5,1553843647000
1553843673125.0000000000,32,-23.4100000000,A01A3A,5,1553843647000
1553843673140.6201171875,32,-20.9200000000,A01A3A,5,1553843647000
1553843673156.2500000000,32,-18.2200000000,A01A3A,5,1553843647000
1553843673171.8798828125,32,-16.1100000000,A01A3A,5,1553843647000
1553843673187.5000000000,32,-15.2200000000,A01A3A,5,1553843647000
1553843673203.1201171875,32,-15.7600000000,A01A3A,5,1553843647000
1553843673218.7500000000,32,-17.4300000000,A01A3A,5,1553843647000
1553843673234.3798828125,32,-19.5900000000,A01A3A,5,1553843647000
1553843673250.0000000000,32,-21.5300000000,A01A3A,5,1553843647000
1553843673265.6201171875,32,-22.8200000000,A01A3A,5,1553843647000
1553843673281.2500000000,32,-23.4300000000,A01A3A,5,1553843647000
1553843673296.8798828125,32,-23.7500000000,A01A3A,5,1553843647000
1553843673312.5000000000,32,-24.3000000000,A01A3A,5,1553843647000
1553843673328.1201171875,32,-25.5200000000,A01A3A,5,1553843647000
1553843673343.7500000000,32,-27.5400000000,A01A3A,5,1553843647000
1553843673359.3798828125,32,-30.1900000000,A01A3A,5,1553843647000
1553843673375.0000000000,32,-33.0400000000,A01A3A,5,1553843647000
1553843673390.6201171875,32,-35.5400000000,A01A3A,5,1553843647000
1553843673406.2500000000,32,-37.0900000000,A01A3A,5,1553843647000
1553843673421.8798828125,32,-37.1500000000,A01A3A,5,1553843647000
1553843673437.5000000000,32,-35.2700000000,A01A3A,5,1553843647000
1553843673453.1201171875,32,-31.2800000000,A01A3A,5,1553843647000
1553843673468.7500000000,32,-25.3200000000,A01A3A,5,1553843647000
1553843673484.3798828125,32,-17.9700000000,A01A3A,5,1553843647000
1553843673500.0000000000,32,-10.0900000000,A01A3A,5,1553843647000
1553843673515.6201171875,32,-2.6600000000,A01A3A,5,1553843647000
1553843673531.2500000000,32,3.5600000000,A01A3A,5,1553843647000
1553843673546.8798828125,32,8.1900000000,A01A3A,5,1553843647000
1553843673562.5000000000,32,11.3500000000,A01A3A,5,1553843647000
1553843673578.1201171875,32,13.4200000000,A01A3A,5,1553843647000
1553843673593.7500000000,32,14.8200000000,A01A3A,5,1553843647000
1553843673609.3798828125,32,15.7400000000,A01A3A,5,1553843647000
1553843673625.0000000000,32,16.0900000000,A01A3A,5,1553843647000
1553843673640.6201171875,32,15.6600000000,A01A3A,5,1553843647000
1553843673656.2500000000,32,14.3200000000,A01A3A,5,1553843647000
1553843673671.8798828125,32,12.2100000000,A01A3A,5,1553843647000
1553843673687.5000000000,32,9.7600000000,A01A3A,5,1553843647000
1553843673703.1201171875,32,7.4900000000,A01A3A,5,1553843647000
1553843673718.7500000000,32,5.8700000000,A01A3A,5,1553843647000
1553843673734.3798828125,32,5.0400000000,A01A3A,5,1553843647000
1553843673750.0000000000,32,4.8400000000,A01A3A,5,1553843647000
1553843673765.6201171875,32,4.8800000000,A01A3A,5,1553843647000
1553843673781.2500000000,32,4.7600000000,A01A3A,5,1553843647000
1553843673796.8798828125,32,4.2200000000,A01A3A,5,1553843647000
1553843673812.5000000000,32,3.1600000000,A01A3A,5,1553843647000
1553843673828.1201171875,32,1.5700000000,A01A3A,5,1553843647000
1553843673843.7500000000,32,-0.4700000000,A01A3A,5,1553843647000
1553843673859.3798828125,32,-2.8300000000,A01A3A,5,1553843647000
1553843673875.0000000000,32,-5.3700000000,A01A3A,5,1553843647000
1553843673890.6201171875,32,-7.9100000000,A01A3A,5,1553843647000
1553843673906.2500000000,32,-10.2900000000,A01A3A,5,1553843647000
1553843673921.8798828125,32,-12.4800000000,A01A3A,5,1553843647000
1553843673937.5000000000,32,-14.5900000000,A01A3A,5,1553843647000
1553843673953.1201171875,32,-16.8300000000,A01A3A,5,1553843647000
1553843673968.7500000000,32,-19.4700000000,A01A3A,5,1553843647000
1553843673984.3798828125,32,-22.6900000000,A01A3A,5,1553843647000
1553843674000.0000000000,32,-26.5200000000,A01A3A,5,1553843647000
1553843674015.6201171875,32,-30.7900000000,A01A3A,5,1553843647000
1553843674031.2500000000,32,-35.1000000000,A01A3A,5,1553843647000
1553843674046.8798828125,32,-38.8500000000,A01A3A,5,1553843647000
1553843674062.5000000000,32,-41.2600000000,A01A3A,5,1553843647000
1553843674078.1201171875,32,-41.5900000000,A01A3A,5,1553843647000
1553843674093.7500000000,32,-39.2900000000,A01A3A,5,1553843647000
1553843674109.3798828125,32,-34.2500000000,A01A3A,5,1553843647000
1553843674125.0000000000,32,-26.9200000000,A01A3A,5,1553843647000
1553843674140.6201171875,32,-18.3000000000,A01A3A,5,1553843647000
1553843674156.2500000000,32,-9.6500000000,A01A3A,5,1553843647000
1553843674171.8798828125,32,-2.1400000000,A01A3A,5,1553843647000
1553843674187.5000000000,32,3.4700000000,A01A3A,5,1553843647000
1553843674203.1201171875,32,7.0300000000,A01A3A,5,1553843647000
1553843674218.7500000000,32,8.9000000000,A01A3A,5,1553843647000
1553843674234.3798828125,32,9.6700000000,A01A3A,5,1553843647000
1553843674250.0000000000,32,9.9100000000,A01A3A,5,1553843647000
1553843674265.6201171875,32,9.9400000000,A01A3A,5,1553843647000
1553843674281.2500000000,32,9.8100000000,A01A3A,5,1553843647000
1553843674296.8798828125,32,9.4800000000,A01A3A,5,1553843647000
1553843674312.5000000000,32,8.9000000000,A01A3A,5,1553843647000
1553843674328.1201171875,32,8.1700000000,A01A3A,5,1553843647000
1553843674343.7500000000,32,7.4300000000,A01A3A,5,1553843647000
1553843674359.3798828125,32,6.8300000000,A01A3A,5,1553843647000
1553843674375.0000000000,32,6.4100000000,A01A3A,5,1553843647000
1553843674390.6201171875,32,6.1100000000,A01A3A,5,1553843647000
1553843674406.2500000000,32,5.8400000000,A01A3A,5,1553843647000
1553843674421.8798828125,32,5.5700000000,A01A3A,5,1553843647000
1553843674437.5000000000,32,5.3100000000,A01A3A,5,1553843647000
1553843674453.1201171875,32,5.1100000000,A01A3A,5,1553843647000
1553843674468.7500000000,32,4.8800000000,A01A3A,5,1553843647000
1553843674484.3798828125,32,4.3600000000,A01A3A,5,1553843647000
1553843674500.0000000000,32,3.2400000000,A01A3A,5,1553843647000
1553843674515.6201171875,32,1.2500000000,A01A3A,5,1553843647000
1553843674531.2500000000,32,-1.6300000000,A01A3A,5,1553843647000
1553843674546.8798828125,32,-5.1700000000,A01A3A,5,1553843647000
1553843674562.5000000000,32,-8.9300000000,A01A3A,5,1553843647000
1553843674578.1201171875,32,-12.4900000000,A01A3A,5,1553843647000
1553843674593.7500000000,32,-15.5900000000,A01A3A,5,1553843647000
1553843674609.3798828125,32,-18.2200000000,A01A3A,5,1553843647000
1553843674625.0000000000,32,-20.6200000000,A01A3A,5,1553843647000
1553843674640.6201171875,32,-23.1700000000,A01A3A,5,1553843647000
1553843674656.2500000000,32,-26.2800000000,A01A3A,5,1553843647000
1553843674671.8798828125,32,-30.2200000000,A01A3A,5,1553843647000
1553843674687.5000000000,32,-34.9200000000,A01A3A,5,1553843647000
1553843674703.1201171875,32,-39.8800000000,A01A3A,5,1553843647000
1553843674718.7500000000,32,-44.1600000000,A01A3A,5,1553843647000
1553843674734.3798828125,32,-46.5900000000,A01A3A,5,1553843647000
1553843674750.0000000000,32,-46.1600000000,A01A3A,5,1553843647000
1553843674765.6201171875,32,-42.3800000000,A01A3A,5,1553843647000
1553843674781.2500000000,32,-35.5600000000,A01A3A,5,1553843647000
1553843674796.8798828125,32,-26.6700000000,A01A3A,5,1553843647000
1553843674812.5000000000,32,-17.0800000000,A01A3A,5,1553843647000
1553843674828.1201171875,32,-8.0100000000,A01A3A,5,1553843647000
1553843674843.7500000000,32,-0.2200000000,A01A3A,5,1553843647000
1553843674859.3798828125,32,6.0700000000,A01A3A,5,1553843647000
1553843674875.0000000000,32,11.0700000000,A01A3A,5,1553843647000
1553843674890.6201171875,32,15.1000000000,A01A3A,5,1553843647000
1553843674906.2500000000,32,18.3600000000,A01A3A,5,1553843647000
1553843674921.8798828125,32,20.9000000000,A01A3A,5,1553843647000
1553843674937.5000000000,32,22.6900000000,A01A3A,5,1553843647000
1553843674953.1201171875,32,23.7500000000,A01A3A,5,1553843647000
1553843674968.7500000000,32,24.2000000000,A01A3A,5,1553843647000
1553843674984.3798828125,32,24.2900000000,A01A3A,5,1553843647000
1553843675000.0000000000,32,24.1700000000,A01A3A,5,1553843647000
1553843675015.6201171875,32,23.8800000000,A01A3A,5,1553843647000
1553843675031.2500000000,32,23.3100000000,A01A3A,5,1553843647000
1553843675046.8798828125,32,22.3100000000,A01A3A,5,1553843647000
1553843675062.5000000000,32,20.8600000000,A01A3A,5,1553843647000
1553843675078.1201171875,32,19.1500000000,A01A3A,5,1553843647000
1553843675093.7500000000,32,17.5900000000,A01A3A,5,1553843647000
1553843675109.3798828125,32,16.7200000000,A01A3A,5,1553843647000
1553843675125.0000000000,32,16.9300000000,A01A3A,5,1553843647000
1553843675140.6201171875,32,18.2500000000,A01A3A,5,1553843647000
1553843675156.2500000000,32,20.2800000000,A01A3A,5,1553843647000
1553843675171.8798828125,32,22.3300000000,A01A3A,5,1553843647000
1553843675187.5000000000,32,23.6400000000,A01A3A,5,1553843647000
1553843675203.1201171875,32,23.7400000000,A01A3A,5,1553843647000
1553843675218.7500000000,32,22.5400000000,A01A3A,5,1553843647000
1553843675234.3798828125,32,20.3300000000,A01A3A,5,1553843647000
1553843675250.0000000000,32,17.5400000000,A01A3A,5,1553843647000
1553843675265.6201171875,32,14.5200000000,A01A3A,5,1553843647000
1553843675281.2500000000,32,11.3700000000,A01A3A,5,1553843647000
1553843675296.8798828125,32,8.0200000000,A01A3A,5,1553843647000
1553843675312.5000000000,32,4.2800000000,A01A3A,5,1553843647000
1553843675328.1201171875,32,0.0100000000,A01A3A,5,1553843647000
1553843675343.7500000000,32,-4.7600000000,A01A3A,5,1553843647000
1553843675359.3798828125,32,-9.7800000000,A01A3A,5,1553843647000
1553843675375.0000000000,32,-14.5100000000,A01A3A,5,1553843647000
1553843675390.6201171875,32,-18.1400000000,A01A3A,5,1553843647000
1553843675406.2500000000,32,-19.8200000000,A01A3A,5,1553843647000
1553843675421.8798828125,32,-18.8100000000,A01A3A,5,1553843647000
1553843675437.5000000000,32,-14.9000000000,A01A3A,5,1553843647000
1553843675453.1201171875,32,-8.5300000000,A01A3A,5,1553843647000
1553843675468.7500000000,32,-0.6700000000,A01A3A,5,1553843647000
1553843675484.3798828125,32,7.4600000000,A01A3A,5,1553843647000
1553843675500.0000000000,32,14.9000000000,A01A3A,5,1553843647000
1553843675515.6201171875,32,21.1800000000,A01A3A,5,1553843647000
1553843675531.2500000000,32,26.3800000000,A01A3A,5,1553843647000
1553843675546.8798828125,32,30.8000000000,A01A3A,5,1553843647000
1553843675562.5000000000,32,34.6500000000,A01A3A,5,1553843647000
1553843675578.1201171875,32,37.8300000000,A01A3A,5,1553843647000
1553843675593.7500000000,32,39.9600000000,A01A3A,5,1553843647000
1553843675609.3798828125,32,40.7000000000,A01A3A,5,1553843647000
1553843675625.0000000000,32,39.9700000000,A01A3A,5,1553843647000
1553843675640.6201171875,32,38.1300000000,A01A3A,5,1553843647000
1553843675656.2500000000,32,35.8000000000,A01A3A,5,1553843647000
1553843675671.8798828125,32,33.6600000000,A01A3A,5,1553843647000
1553843675687.5000000000,32,32.1800000000,A01A3A,5,1553843647000
1553843675703.1201171875,32,31.4800000000,A01A3A,5,1553843647000
1553843675718.7500000000,32,31.4000000000,A01A3A,5,1553843647000
