timestamp,pid,value,device_serial,device_number,entry_time
1548120098000.0000000000,1,0E-10,A01A3A,5,1548120098000
1548120098015.6201171875,1,0E-10,A01A3A,5,1548120098000
1548120098031.2500000000,1,0E-10,A01A3A,5,1548120098000
1548120098046.8798828125,1,0E-10,A01A3A,5,1548120098000
1548120098062.5000000000,1,0E-10,A01A3A,5,1548120098000
1548120098078.1201171875,1,0E-10,A01A3A,5,1548120098000
1548120098093.7500000000,1,0E-10,A01A3A,5,1548120098000
1548120098109.3798828125,1,0E-10,A01A3A,5,1548120098000
1548120098125.0000000000,1,0E-10,A01A3A,5,1548120098000
1548120098140.6201171875,1,0E-10,A01A3A,5,1548120098000
1548120098156.2500000000,1,0E-10,A01A3A,5,1548120098000
1548120098171.8798828125,1,0.0100000000,A01A3A,5,1548120098000
1548120098187.5000000000,1,0.0100000000,A01A3A,5,1548120098000
1548120098203.1201171875,1,0E-10,A01A3A,5,1548120098000
1548120098218.7500000000,1,-0.0300000000,A01A3A,5,1548120098000
1548120098234.3798828125,1,-0.0500000000,A01A3A,5,1548120098000
1548120098250.0000000000,1,-0.0500000000,A01A3A,5,1548120098000
1548120098265.6201171875,1,0E-10,A01A3A,5,1548120098000
1548120098281.2500000000,1,0.1300000000,A01A3A,5,1548120098000
1548120098296.8798828125,1,0.3600000000,A01A3A,5,1548120098000
1548120098312.5000000000,1,0.6600000000,A01A3A,5,1548120098000
1548120098328.1201171875,1,1.0100000000,A01A3A,5,1548120098000
1548120098343.7500000000,1,1.3700000000,A01A3A,5,1548120098000
1548120098359.3798828125,1,1.7200000000,A01A3A,5,1548120098000
1548120098375.0000000000,1,2.0600000000,A01A3A,5,1548120098000
1548120098390.6201171875,1,2.4000000000,A01A3A,5,1548120098000
1548120098406.2500000000,1,2.7900000000,A01A3A,5,1548120098000
1548120098421.8798828125,1,3.2400000000,A01A3A,5,1548120098000
1548120098437.5000000000,1,3.8000000000,A01A3A,5,1548120098000
1548120098453.1201171875,1,4.4200000000,A01A3A,5,1548120098000
1548120098468.7500000000,1,5.0600000000,A01A3A,5,1548120098000
1548120098484.3798828125,1,5.6600000000,A01A3A,5,1548120098000
1548120098500.0000000000,1,6.2000000000,A01A3A,5,1548120098000
1548120098515.6201171875,1,6.6800000000,A01A3A,5,1548120098000
1548120098531.2500000000,1,7.1500000000,A01A3A,5,1548120098000
1548120098546.8798828125,1,7.6800000000,A01A3A,5,1548120098000
1548120098562.5000000000,1,8.3100000000,A01A3A,5,1548120098000
1548120098578.1201171875,1,9.1400000000,A01A3A,5,1548120098000
1548120098593.7500000000,1,10.0900000000,A01A3A,5,1548120098000
1548120098609.3798828125,1,11.0400000000,A01A3A,5,1548120098000
1548120098625.0000000000,1,11.8800000000,A01A3A,5,1548120098000
1548120098640.6201171875,1,12.5600000000,A01A3A,5,1548120098000
1548120098656.2500000000,1,13.1400000000,A01A3A,5,1548120098000
1548120098671.8798828125,1,13.7600000000,A01A3A,5,1548120098000
1548120098687.5000000000,1,14.6500000000,A01A3A,5,1548120098000
1548120098703.1201171875,1,15.9600000000,A01A3A,5,1548120098000
1548120098718.7500000000,1,17.9100000000,A01A3A,5,1548120098000
1548120098734.3798828125,1,20.3200000000,A01A3A,5,1548120098000
1548120098750.0000000000,1,22.9000000000,A01A3A,5,1548120098000
1548120098765.6201171875,1,25.3800000000,A01A3A,5,1548120098000
1548120098781.2500000000,1,27.5800000000,A01A3A,5,1548120098000
1548120098796.8798828125,1,29.5700000000,A01A3A,5,1548120098000
1548120098812.5000000000,1,31.6800000000,A01A3A,5,1548120098000
1548120098828.1201171875,1,34.3200000000,A01A3A,5,1548120098000
1548120098843.7500000000,1,37.8100000000,A01A3A,5,1548120098000
1548120098859.3798828125,1,42.5400000000,A01A3A,5,1548120098000
1548120098875.0000000000,1,48.1500000000,A01A3A,5,1548120098000
1548120098890.6201171875,1,54.1000000000,A01A3A,5,1548120098000
1548120098906.2500000000,1,59.8300000000,A01A3A,5,1548120098000
1548120098921.8798828125,1,64.9700000000,A01A3A,5,1548120098000
1548120098937.5000000000,1,69.5800000000,A01A3A,5,1548120098000
1548120098953.1201171875,1,74.1400000000,A01A3A,5,1548120098000
1548120098968.7500000000,1,79.3400000000,A01A3A,5,1548120098000
1548120098984.3798828125,1,85.7100000000,A01A3A,5,1548120098000
1548120099000.0000000000,1,93.7600000000,A01A3A,5,1548120098000
1548120099015.6201171875,1,103.0000000000,A01A3A,5,1548120098000
1548120099031.2500000000,1,112.6200000000,A01A3A,5,1548120098000
1548120099046.8798828125,1,121.7300000000,A01A3A,5,1548120098000
1548120099062.5000000000,1,129.7700000000,A01A3A,5,1548120098000
1548120099078.1201171875,1,136.7500000000,A01A3A,5,1548120098000
1548120099093.7500000000,1,143.3000000000,A01A3A,5,1548120098000
1548120099109.3798828125,1,150.7500000000,A01A3A,5,1548120098000
1548120099125.0000000000,1,157.7700000000,A01A3A,5,1548120098000
1548120099140.6201171875,1,166.6400000000,A01A3A,5,1548120098000
1548120099156.2500000000,1,177.9500000000,A01A3A,5,1548120098000
1548120099171.8798828125,1,191.7900000000,A01A3A,5,1548120098000
1548120099187.5000000000,1,206.9700000000,A01A3A,5,1548120098000
1548120099203.1201171875,1,220.5700000000,A01A3A,5,1548120098000
1548120099218.7500000000,1,228.2500000000,A01A3A,5,1548120098000
1548120099234.3798828125,1,225.3600000000,A01A3A,5,1548120098000
1548120099250.0000000000,1,208.5300000000,A01A3A,5,1548120098000
1548120099265.6201171875,1,176.8700000000,A01A3A,5,1548120098000
1548120099281.2500000000,1,132.7600000000,A01A3A,5,1548120098000
1548120099296.8798828125,1,80.0500000000,A01A3A,5,1548120098000
1548120099312.5000000000,1,23.0700000000,A01A3A,5,1548120098000
1548120099328.1201171875,1,-34.9400000000,A01A3A,5,1548120098000
1548120099343.7500000000,1,-92.4400000000,A01A3A,5,1548120098000
1548120099359.3798828125,1,-149.1600000000,A01A3A,5,1548120098000
1548120099375.0000000000,1,-205.2300000000,A01A3A,5,1548120098000
1548120099390.6201171875,1,-260.3700000000,A01A3A,5,1548120098000
1548120099406.2500000000,1,-313.7400000000,A01A3A,5,1548120098000
1548120099421.8798828125,1,-363.8700000000,A01A3A,5,1548120098000
1548120099437.5000000000,1,-409.8300000000,A01A3A,5,1548120098000
1548120099453.1201171875,1,-450.9100000000,A01A3A,5,1548120098000
1548120099468.7500000000,1,-486.5000000000,A01A3A,5,1548120098000
1548120099484.3798828125,1,-515.7400000000,A01A3A,5,1548120098000
1548120099500.0000000000,1,-537.2300000000,A01A3A,5,1548120098000
1548120099515.6201171875,1,-549.2200000000,A01A3A,5,1548120098000
1548120099531.2500000000,1,-549.9600000000,A01A3A,5,1548120098000
1548120099546.8798828125,1,-538.3700000000,A01A3A,5,1548120098000
1548120099562.5000000000,1,-514.2100000000,A01A3A,5,1548120098000
1548120099578.1201171875,1,-478.6700000000,A01A3A,5,1548120098000
1548120099593.7500000000,1,-433.8800000000,A01A3A,5,1548120098000
1548120099609.3798828125,1,-382.4500000000,A01A3A,5,1548120098000
1548120099625.0000000000,1,-327.0200000000,A01A3A,5,1548120098000
1548120099640.6201171875,1,-269.8400000000,A01A3A,5,1548120098000
1548120099656.2500000000,1,-212.6300000000,A01A3A,5,1548120098000
1548120099671.8798828125,1,-156.6600000000,A01A3A,5,1548120098000
1548120099687.5000000000,1,-102.9500000000,A01A3A,5,1548120098000
1548120099703.1201171875,1,-52.3700000000,A01A3A,5,1548120098000
1548120099718.7500000000,1,-5.9000000000,A01A3A,5,1548120098000
1548120099734.3798828125,1,35.5800000000,A01A3A,5,1548120098000
1548120099750.0000000000,1,71.4300000000,A01A3A,5,1548120098000
1548120099765.6201171875,1,101.3500000000,A01A3A,5,1548120098000
1548120099781.2500000000,1,125.5000000000,A01A3A,5,1548120098000
1548120099796.8798828125,1,144.3800000000,A01A3A,5,1548120098000
1548120099812.5000000000,1,158.6900000000,A01A3A,5,1548120098000
1548120099828.1201171875,1,169.1500000000,A01A3A,5,1548120098000
1548120099843.7500000000,1,176.3700000000,A01A3A,5,1548120098000
1548120099859.3798828125,1,180.7500000000,A01A3A,5,1548120098000
1548120099875.0000000000,1,182.5700000000,A01A3A,5,1548120098000
1548120099890.6201171875,1,182.0700000000,A01A3A,5,1548120098000
1548120099906.2500000000,1,179.5100000000,A01A3A,5,1548120098000
1548120099921.8798828125,1,175.2300000000,A01A3A,5,1548120098000
1548120099937.5000000000,1,169.6500000000,A01A3A,5,1548120098000
1548120099953.1201171875,1,163.1800000000,A01A3A,5,1548120098000
1548120099968.7500000000,1,156.1500000000,A01A3A,5,1548120098000
1548120099984.3798828125,1,148.8100000000,A01A3A,5,1548120098000
1548120100000.0000000000,1,141.3000000000,A01A3A,5,1548120098000
1548120100015.6201171875,1,133.6900000000,A01A3A,5,1548120098000
1548120100031.2500000000,1,126.0200000000,A01A3A,5,1548120098000
1548120100046.8798828125,1,118.3300000000,A01A3A,5,1548120098000
1548120100062.5000000000,1,110.6900000000,A01A3A,5,1548120098000
1548120100078.1201171875,1,103.1600000000,A01A3A,5,1548120098000
1548120100093.7500000000,1,95.8000000000,A01A3A,5,1548120098000
1548120100109.3798828125,1,88.6800000000,A01A3A,5,1548120098000
1548120100125.0000000000,1,81.8300000000,A01A3A,5,1548120098000
1548120100140.6201171875,1,75.2500000000,A01A3A,5,1548120098000
1548120100156.2500000000,1,68.9500000000,A01A3A,5,1548120098000
1548120100171.8798828125,1,62.9500000000,A01A3A,5,1548120098000
1548120100187.5000000000,1,57.2500000000,A01A3A,5,1548120098000
1548120100203.1201171875,1,51.8600000000,A01A3A,5,1548120098000
1548120100218.7500000000,1,46.7800000000,A01A3A,5,1548120098000
1548120100234.3798828125,1,42.0300000000,A01A3A,5,1548120098000
1548120100250.0000000000,1,37.5900000000,A01A3A,5,1548120098000
1548120100265.6201171875,1,33.4500000000,A01A3A,5,1548120098000
1548120100281.2500000000,1,29.6100000000,A01A3A,5,1548120098000
1548120100296.8798828125,1,26.0700000000,A01A3A,5,1548120098000
1548120100312.5000000000,1,22.8100000000,A01A3A,5,1548120098000
1548120100328.1201171875,1,19.8300000000,A01A3A,5,1548120098000
1548120100343.7500000000,1,17.1100000000,A01A3A,5,1548120098000
1548120100359.3798828125,1,14.6700000000,A01A3A,5,1548120098000
1548120100375.0000000000,1,12.4800000000,A01A3A,5,1548120098000
1548120100390.6201171875,1,10.5400000000,A01A3A,5,1548120098000
1548120100406.2500000000,1,8.8300000000,A01A3A,5,1548120098000
1548120100421.8798828125,1,7.3500000000,A01A3A,5,1548120098000
1548120100437.5000000000,1,6.0700000000,A01A3A,5,1548120098000
1548120100453.1201171875,1,4.9700000000,A01A3A,5,1548120098000
1548120100468.7500000000,1,4.0500000000,A01A3A,5,1548120098000
1548120100484.3798828125,1,3.2700000000,A01A3A,5,1548120098000
1548120100500.0000000000,1,2.6200000000,A01A3A,5,1548120098000
1548120100515.6201171875,1,2.0900000000,A01A3A,5,1548120098000
1548120100531.2500000000,1,1.6500000000,A01A3A,5,1548120098000
1548120100546.8798828125,1,1.3000000000,A01A3A,5,1548120098000
1548120100562.5000000000,1,1.0100000000,A01A3A,5,1548120098000
1548120100578.1201171875,1,0.7900000000,A01A3A,5,1548120098000
1548120100593.7500000000,1,0.6100000000,A01A3A,5,1548120098000
1548120100609.3798828125,1,0.4700000000,A01A3A,5,1548120098000
1548120100625.0000000000,1,0.3700000000,A01A3A,5,1548120098000
1548120100640.6201171875,1,0.2900000000,A01A3A,5,1548120098000
1548120100656.2500000000,1,0.2300000000,A01A3A,5,1548120098000
1548120100671.8798828125,1,0.1900000000,A01A3A,5,1548120098000
1548120100687.5000000000,1,0.1600000000,A01A3A,5,1548120098000
1548120100703.1201171875,1,0.1400000000,A01A3A,5,1548120098000
1548120100718.7500000000,1,0.1400000000,A01A3A,5,1548120098000
1548120100734.3798828125,1,0.1500000000,A01A3A,5,1548120098000
1548120100750.0000000000,1,0.1600000000,A01A3A,5,1548120098000
1548120100765.6201171875,1,0.1800000000,A01A3A,5,1548120098000
1548120100781.2500000000,1,0.2100000000,A01A3A,5,1548120098000
1548120100796.8798828125,1,0.2400000000,A01A3A,5,1548120098000
1548120100812.5000000000,1,0.2800000000,A01A3A,5,1548120098000
1548120100828.1201171875,1,0.3200000000,A01A3A,5,1548120098000
1548120100843.7500000000,1,0.3600000000,A01A3A,5,1548120098000
1548120100859.3798828125,1,0.4000000000,A01A3A,5,1548120098000
1548120100875.0000000000,1,0.4500000000,A01A3A,5,1548120098000
1548120100890.6201171875,1,0.5000000000,A01A3A,5,1548120098000
1548120100906.2500000000,1,0.5500000000,A01A3A,5,1548120098000
1548120100921.8798828125,1,0.6000000000,A01A3A,5,1548120098000
1548120100937.5000000000,1,0.6500000000,A01A3A,5,1548120098000
1548120100953.1201171875,1,0.7100000000,A01A3A,5,1548120098000
1548120100968.7500000000,1,0.7700000000,A01A3A,5,1548120098000
1548120100984.3798828125,1,0.8300000000,A01A3A,5,1548120098000
1548120101000.0000000000,1,0.9000000000,A01A3A,5,1548120098000
1548120101015.6201171875,1,0.9800000000,A01A3A,5,1548120098000
1548120101031.2500000000,1,1.0700000000,A01A3A,5,1548120098000
1548120101046.8798828125,1,1.1600000000,A01A3A,5,1548120098000
1548120101062.5000000000,1,1.2700000000,A01A3A,5,1548120098000
1548120101078.1201171875,1,1.3900000000,A01A3A,5,1548120098000
1548120101093.7500000000,1,1.5200000000,A01A3A,5,1548120098000
1548120101109.3798828125,1,1.6700000000,A01A3A,5,1548120098000
1548120101125.0000000000,1,1.8400000000,A01A3A,5,1548120098000
1548120101140.6201171875,1,2.0200000000,A01A3A,5,1548120098000
1548120101156.2500000000,1,2.2300000000,A01A3A,5,1548120098000
1548120101171.8798828125,1,2.4600000000,A01A3A,5,1548120098000
1548120101187.5000000000,1,2.7200000000,A01A3A,5,1548120098000
1548120101203.1201171875,1,3.0000000000,A01A3A,5,1548120098000
1548120101218.7500000000,1,3.3100000000,A01A3A,5,1548120098000
1548120101234.3798828125,1,3.6500000000,A01A3A,5,1548120098000
1548120101250.0000000000,1,4.0200000000,A01A3A,5,1548120098000
1548120101265.6201171875,1,4.4200000000,A01A3A,5,1548120098000
1548120101281.2500000000,1,4.8700000000,A01A3A,5,1548120098000
1548120101296.8798828125,1,5.3400000000,A01A3A,5,1548120098000
1548120101312.5000000000,1,5.8600000000,A01A3A,5,1548120098000
1548120101328.1201171875,1,6.4100000000,A01A3A,5,1548120098000
1548120101343.7500000000,1,7.0100000000,A01A3A,5,1548120098000
1548120101359.3798828125,1,7.6400000000,A01A3A,5,1548120098000
1548120101375.0000000000,1,8.3200000000,A01A3A,5,1548120098000
1548120101390.6201171875,1,9.0500000000,A01A3A,5,1548120098000
1548120101406.2500000000,1,9.8200000000,A01A3A,5,1548120098000
1548120101421.8798828125,1,10.6400000000,A01A3A,5,1548120098000
1548120101437.5000000000,1,11.5000000000,A01A3A,5,1548120098000
1548120101453.1201171875,1,12.4000000000,A01A3A,5,1548120098000
1548120101468.7500000000,1,13.3500000000,A01A3A,5,1548120098000
1548120101484.3798828125,1,14.3600000000,A01A3A,5,1548120098000
1548120101500.0000000000,1,15.4300000000,A01A3A,5,1548120098000
1548120101515.6201171875,1,16.5600000000,A01A3A,5,1548120098000
1548120101531.2500000000,1,17.7600000000,A01A3A,5,1548120098000
1548120101546.8798828125,1,19.0000000000,A01A3A,5,1548120098000
1548120101562.5000000000,1,20.2800000000,A01A3A,5,1548120098000
1548120101578.1201171875,1,21.5500000000,A01A3A,5,1548120098000
1548120101593.7500000000,1,22.7400000000,A01A3A,5,1548120098000
1548120101609.3798828125,1,23.7600000000,A01A3A,5,1548120098000
1548120101625.0000000000,1,24.5100000000,A01A3A,5,1548120098000
1548120101640.6201171875,1,24.8700000000,A01A3A,5,1548120098000
1548120101656.2500000000,1,24.7000000000,A01A3A,5,1548120098000
1548120101671.8798828125,1,23.9100000000,A01A3A,5,1548120098000
1548120101687.5000000000,1,22.4000000000,A01A3A,5,1548120098000
1548120101703.1201171875,1,20.1700000000,A01A3A,5,1548120098000
1548120101718.7500000000,1,17.2200000000,A01A3A,5,1548120098000
1548120101734.3798828125,1,13.6400000000,A01A3A,5,1548120098000
1548120101750.0000000000,1,9.5200000000,A01A3A,5,1548120098000
1548120101765.6201171875,1,5.0700000000,A01A3A,5,1548120098000
1548120101781.2500000000,1,0.5000000000,A01A3A,5,1548120098000
1548120101796.8798828125,1,-3.9800000000,A01A3A,5,1548120098000
1548120101812.5000000000,1,-8.1600000000,A01A3A,5,1548120098000
1548120101828.1201171875,1,-11.8500000000,A01A3A,5,1548120098000
1548120101843.7500000000,1,-14.9000000000,A01A3A,5,1548120098000
1548120101859.3798828125,1,-17.2200000000,A01A3A,5,1548120098000
1548120101875.0000000000,1,-18.7800000000,A01A3A,5,1548120098000
1548120101890.6201171875,1,-19.6000000000,A01A3A,5,1548120098000
1548120101906.2500000000,1,-19.7300000000,A01A3A,5,1548120098000
1548120101921.8798828125,1,-19.2700000000,A01A3A,5,1548120098000
1548120101937.5000000000,1,-18.3500000000,A01A3A,5,1548120098000
1548120101953.1201171875,1,-17.0700000000,A01A3A,5,1548120098000
1548120101968.7500000000,1,-15.5400000000,A01A3A,5,1548120098000
1548120101984.3798828125,1,-13.8400000000,A01A3A,5,1548120098000
1548120102000.0000000000,1,-12.0400000000,A01A3A,5,1548120098000
1548120102015.6201171875,1,-10.2200000000,A01A3A,5,1548120098000
1548120102031.2500000000,1,-8.4100000000,A01A3A,5,1548120098000
1548120102046.8798828125,1,-6.6100000000,A01A3A,5,1548120098000
1548120102062.5000000000,1,-4.8800000000,A01A3A,5,1548120098000
1548120102078.1201171875,1,-3.2300000000,A01A3A,5,1548120098000
1548120102093.7500000000,1,-1.6100000000,A01A3A,5,1548120098000
1548120102109.3798828125,1,0.0200000000,A01A3A,5,1548120098000
1548120102125.0000000000,1,1.7300000000,A01A3A,5,1548120098000
1548120102140.6201171875,1,3.5400000000,A01A3A,5,1548120098000
1548120102156.2500000000,1,5.4700000000,A01A3A,5,1548120098000
1548120102171.8798828125,1,7.5100000000,A01A3A,5,1548120098000
1548120102187.5000000000,1,9.7200000000,A01A3A,5,1548120098000
1548120102203.1201171875,1,11.9800000000,A01A3A,5,1548120098000
1548120102218.7500000000,1,14.2600000000,A01A3A,5,1548120098000
1548120102234.3798828125,1,16.5800000000,A01A3A,5,1548120098000
1548120102250.0000000000,1,19.0000000000,A01A3A,5,1548120098000
1548120102265.6201171875,1,21.5600000000,A01A3A,5,1548120098000
1548120102281.2500000000,1,24.2700000000,A01A3A,5,1548120098000
1548120102296.8798828125,1,27.1300000000,A01A3A,5,1548120098000
1548120102312.5000000000,1,30.1300000000,A01A3A,5,1548120098000
1548120102328.1201171875,1,33.3000000000,A01A3A,5,1548120098000
1548120102343.7500000000,1,36.4200000000,A01A3A,5,1548120098000
1548120102359.3798828125,1,39.4600000000,A01A3A,5,1548120098000
1548120102375.0000000000,1,42.5000000000,A01A3A,5,1548120098000
1548120102390.6201171875,1,45.6600000000,A01A3A,5,1548120098000
1548120102406.2500000000,1,49.1000000000,A01A3A,5,1548120098000
1548120102421.8798828125,1,52.8400000000,A01A3A,5,1548120098000
1548120102437.5000000000,1,56.8400000000,A01A3A,5,1548120098000
1548120102453.1201171875,1,60.9700000000,A01A3A,5,1548120098000
1548120102468.7500000000,1,65.2500000000,A01A3A,5,1548120098000
1548120102484.3798828125,1,69.2300000000,A01A3A,5,1548120098000
1548120102500.0000000000,1,72.8700000000,A01A3A,5,1548120098000
1548120102515.6201171875,1,76.3700000000,A01A3A,5,1548120098000
1548120102531.2500000000,1,80.0400000000,A01A3A,5,1548120098000
1548120102546.8798828125,1,84.1400000000,A01A3A,5,1548120098000
1548120102562.5000000000,1,88.7200000000,A01A3A,5,1548120098000
1548120102578.1201171875,1,93.5200000000,A01A3A,5,1548120098000
1548120102593.7500000000,1,98.1500000000,A01A3A,5,1548120098000
1548120102609.3798828125,1,102.3300000000,A01A3A,5,1548120098000
1548120102625.0000000000,1,105.2700000000,A01A3A,5,1548120098000
1548120102640.6201171875,1,106.7900000000,A01A3A,5,1548120098000
1548120102656.2500000000,1,107.1100000000,A01A3A,5,1548120098000
1548120102671.8798828125,1,106.5700000000,A01A3A,5,1548120098000
1548120102687.5000000000,1,105.2500000000,A01A3A,5,1548120098000
1548120102703.1201171875,1,102.6500000000,A01A3A,5,1548120098000
1548120102718.7500000000,1,97.3700000000,A01A3A,5,1548120098000
1548120102734.3798828125,1,87.0100000000,A01A3A,5,1548120098000
1548120102750.0000000000,1,73.5600000000,A01A3A,5,1548120098000
1548120102765.6201171875,1,57.2300000000,A01A3A,5,1548120098000
1548120102781.2500000000,1,38.5500000000,A01A3A,5,1548120098000
1548120102796.8798828125,1,18.4800000000,A01A3A,5,1548120098000
1548120102812.5000000000,1,-1.8900000000,A01A3A,5,1548120098000
1548120102828.1201171875,1,-21.6300000000,A01A3A,5,1548120098000
1548120102843.7500000000,1,-40.3600000000,A01A3A,5,1548120098000
1548120102859.3798828125,1,-58.2900000000,A01A3A,5,1548120098000
1548120102875.0000000000,1,-76.0600000000,A01A3A,5,1548120098000
1548120102890.6201171875,1,-94.4700000000,A01A3A,5,1548120098000
1548120102906.2500000000,1,-115.0300000000,A01A3A,5,1548120098000
1548120102921.8798828125,1,-138.7900000000,A01A3A,5,1548120098000
1548120102937.5000000000,1,-165.9900000000,A01A3A,5,1548120098000
1548120102953.1201171875,1,-195.5900000000,A01A3A,5,1548120098000
1548120102968.7500000000,1,-224.9500000000,A01A3A,5,1548120098000
1548120102984.3798828125,1,-249.9800000000,A01A3A,5,1548120098000
1548120103000.0000000000,1,-266.2200000000,A01A3A,5,1548120098000
1548120103015.6201171875,1,-270.2100000000,A01A3A,5,1548120098000
1548120103031.2500000000,1,-260.8100000000,A01A3A,5,1548120098000
1548120103046.8798828125,1,-240.2700000000,A01A3A,5,1548120098000
1548120103062.5000000000,1,-212.8100000000,A01A3A,5,1548120098000
1548120103078.1201171875,1,-183.2500000000,A01A3A,5,1548120098000
1548120103093.7500000000,1,-155.3600000000,A01A3A,5,1548120098000
1548120103109.3798828125,1,-131.1200000000,A01A3A,5,1548120098000
1548120103125.0000000000,1,-110.9000000000,A01A3A,5,1548120098000
1548120103140.6201171875,1,-94.3400000000,A01A3A,5,1548120098000
1548120103156.2500000000,1,-81.2000000000,A01A3A,5,1548120098000
1548120103171.8798828125,1,-71.6600000000,A01A3A,5,1548120098000
1548120103187.5000000000,1,-66.2100000000,A01A3A,5,1548120098000
1548120103203.1201171875,1,-64.6200000000,A01A3A,5,1548120098000
1548120103218.7500000000,1,-65.6100000000,A01A3A,5,1548120098000
1548120103234.3798828125,1,-67.1300000000,A01A3A,5,1548120098000
1548120103250.0000000000,1,-67.2300000000,A01A3A,5,1548120098000
1548120103265.6201171875,1,-64.7700000000,A01A3A,5,1548120098000
1548120103281.2500000000,1,-59.9600000000,A01A3A,5,1548120098000
1548120103296.8798828125,1,-54.1600000000,A01A3A,5,1548120098000
1548120103312.5000000000,1,-49.2900000000,A01A3A,5,1548120098000
1548120103328.1201171875,1,-47.0900000000,A01A3A,5,1548120098000
1548120103343.7500000000,1,-48.3700000000,A01A3A,5,1548120098000
1548120103359.3798828125,1,-52.7200000000,A01A3A,5,1548120098000
1548120103375.0000000000,1,-58.5000000000,A01A3A,5,1548120098000
1548120103390.6201171875,1,-63.2800000000,A01A3A,5,1548120098000
1548120103406.2500000000,1,-64.2300000000,A01A3A,5,1548120098000
1548120103421.8798828125,1,-58.9000000000,A01A3A,5,1548120098000
1548120103437.5000000000,1,-45.9000000000,A01A3A,5,1548120098000
1548120103453.1201171875,1,-25.4900000000,A01A3A,5,1548120098000
1548120103468.7500000000,1,0.2500000000,A01A3A,5,1548120098000
1548120103484.3798828125,1,27.9400000000,A01A3A,5,1548120098000
1548120103500.0000000000,1,53.8200000000,A01A3A,5,1548120098000
1548120103515.6201171875,1,74.8700000000,A01A3A,5,1548120098000
1548120103531.2500000000,1,89.5600000000,A01A3A,5,1548120098000
1548120103546.8798828125,1,98.0400000000,A01A3A,5,1548120098000
1548120103562.5000000000,1,101.5300000000,A01A3A,5,1548120098000
1548120103578.1201171875,1,101.5400000000,A01A3A,5,1548120098000
1548120103593.7500000000,1,99.1200000000,A01A3A,5,1548120098000
1548120103609.3798828125,1,94.6900000000,A01A3A,5,1548120098000
1548120103625.0000000000,1,88.3000000000,A01A3A,5,1548120098000
1548120103640.6201171875,1,80.1500000000,A01A3A,5,1548120098000
1548120103656.2500000000,1,70.9600000000,A01A3A,5,1548120098000
1548120103671.8798828125,1,61.9900000000,A01A3A,5,1548120098000
1548120103687.5000000000,1,54.6100000000,A01A3A,5,1548120098000
1548120103703.1201171875,1,49.8100000000,A01A3A,5,1548120098000
1548120103718.7500000000,1,47.8200000000,A01A3A,5,1548120098000
1548120103734.3798828125,1,48.0700000000,A01A3A,5,1548120098000
1548120103750.0000000000,1,49.4400000000,A01A3A,5,1548120098000
1548120103765.6201171875,1,50.8300000000,A01A3A,5,1548120098000
1548120103781.2500000000,1,51.4700000000,A01A3A,5,1548120098000
1548120103796.8798828125,1,51.1500000000,A01A3A,5,1548120098000
1548120103812.5000000000,1,49.9900000000,A01A3A,5,1548120098000
1548120103828.1201171875,1,48.2500000000,A01A3A,5,1548120098000
1548120103843.7500000000,1,45.9600000000,A01A3A,5,1548120098000
1548120103859.3798828125,1,42.7900000000,A01A3A,5,1548120098000
1548120103875.0000000000,1,38.1900000000,A01A3A,5,1548120098000
1548120103890.6201171875,1,31.6200000000,A01A3A,5,1548120098000
1548120103906.2500000000,1,22.9500000000,A01A3A,5,1548120098000
1548120103921.8798828125,1,12.6300000000,A01A3A,5,1548120098000
1548120103937.5000000000,1,1.7500000000,A01A3A,5,1548120098000
1548120103953.1201171875,1,-8.3300000000,A01A3A,5,1548120098000
1548120103968.7500000000,1,-16.3800000000,A01A3A,5,1548120098000
1548120103984.3798828125,1,-21.8900000000,A01A3A,5,1548120098000
1548120104000.0000000000,1,-25.2400000000,A01A3A,5,1548120098000
1548120104015.6201171875,1,-27.6300000000,A01A3A,5,1548120098000
1548120104031.2500000000,1,-30.6000000000,A01A3A,5,1548120098000
1548120104046.8798828125,1,-35.5100000000,A01A3A,5,1548120098000
1548120104062.5000000000,1,-43.1000000000,A01A3A,5,1548120098000
1548120104078.1201171875,1,-53.2700000000,A01A3A,5,1548120098000
1548120104093.7500000000,1,-64.9600000000,A01A3A,5,1548120098000
1548120104109.3798828125,1,-76.2300000000,A01A3A,5,1548120098000
1548120104125.0000000000,1,-84.4800000000,A01A3A,5,1548120098000
1548120104140.6201171875,1,-86.9100000000,A01A3A,5,1548120098000
1548120104156.2500000000,1,-81.2600000000,A01A3A,5,1548120098000
1548120104171.8798828125,1,-66.7000000000,A01A3A,5,1548120098000
1548120104187.5000000000,1,-44.3700000000,A01A3A,5,1548120098000
1548120104203.1201171875,1,-17.2500000000,A01A3A,5,1548120098000
1548120104218.7500000000,1,10.6100000000,A01A3A,5,1548120098000
1548120104234.3798828125,1,35.3400000000,A01A3A,5,1548120098000
1548120104250.0000000000,1,54.2900000000,A01A3A,5,1548120098000
1548120104265.6201171875,1,66.5700000000,A01A3A,5,1548120098000
1548120104281.2500000000,1,72.7500000000,A01A3A,5,1548120098000
1548120104296.8798828125,1,74.1100000000,A01A3A,5,1548120098000
1548120104312.5000000000,1,71.8100000000,A01A3A,5,1548120098000
1548120104328.1201171875,1,66.6500000000,A01A3A,5,1548120098000
1548120104343.7500000000,1,59.0700000000,A01A3A,5,1548120098000
1548120104359.3798828125,1,49.6300000000,A01A3A,5,1548120098000
1548120104375.0000000000,1,39.3000000000,A01A3A,5,1548120098000
1548120104390.6201171875,1,29.4300000000,A01A3A,5,1548120098000
1548120104406.2500000000,1,21.4400000000,A01A3A,5,1548120098000
1548120104421.8798828125,1,16.3300000000,A01A3A,5,1548120098000
1548120104437.5000000000,1,14.3000000000,A01A3A,5,1548120098000
1548120104453.1201171875,1,14.8000000000,A01A3A,5,1548120098000
1548120104468.7500000000,1,16.7700000000,A01A3A,5,1548120098000
1548120104484.3798828125,1,19.1700000000,A01A3A,5,1548120098000
1548120104500.0000000000,1,21.4300000000,A01A3A,5,1548120098000
1548120104515.6201171875,1,23.4700000000,A01A3A,5,1548120098000
1548120104531.2500000000,1,25.4900000000,A01A3A,5,1548120098000
1548120104546.8798828125,1,27.5500000000,A01A3A,5,1548120098000
1548120104562.5000000000,1,29.1700000000,A01A3A,5,1548120098000
1548120104578.1201171875,1,29.3700000000,A01A3A,5,1548120098000
1548120104593.7500000000,1,27.0000000000,A01A3A,5,1548120098000
1548120104609.3798828125,1,21.3500000000,A01A3A,5,1548120098000
1548120104625.0000000000,1,12.6000000000,A01A3A,5,1548120098000
1548120104640.6201171875,1,1.9000000000,A01A3A,5,1548120098000
1548120104656.2500000000,1,-9.0200000000,A01A3A,5,1548120098000
1548120104671.8798828125,1,-18.5300000000,A01A3A,5,1548120098000
1548120104687.5000000000,1,-25.7200000000,A01A3A,5,1548120098000
1548120104703.1201171875,1,-30.7100000000,A01A3A,5,1548120098000
1548120104718.7500000000,1,-34.4900000000,A01A3A,5,1548120098000
1548120104734.3798828125,1,-38.4800000000,A01A3A,5,1548120098000
1548120104750.0000000000,1,-44.0400000000,A01A3A,5,1548120098000
1548120104765.6201171875,1,-51.9600000000,A01A3A,5,1548120098000
1548120104781.2500000000,1,-62.2300000000,A01A3A,5,1548120098000
1548120104796.8798828125,1,-73.8100000000,A01A3A,5,1548120098000
1548120104812.5000000000,1,-84.6700000000,A01A3A,5,1548120098000
1548120104828.1201171875,1,-92.0000000000,A01A3A,5,1548120098000
1548120104843.7500000000,1,-92.8700000000,A01A3A,5,1548120098000
1548120104859.3798828125,1,-85.1100000000,A01A3A,5,1548120098000
1548120104875.0000000000,1,-68.2500000000,A01A3A,5,1548120098000
1548120104890.6201171875,1,-43.9200000000,A01A3A,5,1548120098000
1548120104906.2500000000,1,-15.6300000000,A01A3A,5,1548120098000
1548120104921.8798828125,1,12.3300000000,A01A3A,5,1548120098000
1548120104937.5000000000,1,36.1500000000,A01A3A,5,1548120098000
1548120104953.1201171875,1,53.5300000000,A01A3A,5,1548120098000
1548120104968.7500000000,1,63.9600000000,A01A3A,5,1548120098000
1548120104984.3798828125,1,68.2400000000,A01A3A,5,1548120098000
1548120105000.0000000000,1,67.6400000000,A01A3A,5,1548120098000
1548120105015.6201171875,1,63.1900000000,A01A3A,5,1548120098000
1548120105031.2500000000,1,55.5200000000,A01A3A,5,1548120098000
1548120105046.8798828125,1,45.1600000000,A01A3A,5,1548120098000
1548120105062.5000000000,1,33.0400000000,A01A3A,5,1548120098000
1548120105078.1201171875,1,20.7600000000,A01A3A,5,1548120098000
1548120105093.7500000000,1,10.3400000000,A01A3A,5,1548120098000
1548120105109.3798828125,1,3.5700000000,A01A3A,5,1548120098000
1548120105125.0000000000,1,1.3800000000,A01A3A,5,1548120098000
1548120105140.6201171875,1,3.3900000000,A01A3A,5,1548120098000
1548120105156.2500000000,1,8.1500000000,A01A3A,5,1548120098000
1548120105171.8798828125,1,13.7700000000,A01A3A,5,1548120098000
1548120105187.5000000000,1,18.7500000000,A01A3A,5,1548120098000
1548120105203.1201171875,1,22.4900000000,A01A3A,5,1548120098000
1548120105218.7500000000,1,25.2800000000,A01A3A,5,1548120098000
1548120105234.3798828125,1,27.7000000000,A01A3A,5,1548120098000
1548120105250.0000000000,1,29.9700000000,A01A3A,5,1548120098000
1548120105265.6201171875,1,31.4400000000,A01A3A,5,1548120098000
1548120105281.2500000000,1,30.8300000000,A01A3A,5,1548120098000
1548120105296.8798828125,1,26.7800000000,A01A3A,5,1548120098000
1548120105312.5000000000,1,18.5800000000,A01A3A,5,1548120098000
1548120105328.1201171875,1,6.7500000000,A01A3A,5,1548120098000
1548120105343.7500000000,1,-7.1000000000,A01A3A,5,1548120098000
1548120105359.3798828125,1,-20.7700000000,A01A3A,5,1548120098000
1548120105375.0000000000,1,-32.2600000000,A01A3A,5,1548120098000
1548120105390.6201171875,1,-40.3700000000,A01A3A,5,1548120098000
1548120105406.2500000000,1,-45.0600000000,A01A3A,5,1548120098000
1548120105421.8798828125,1,-47.3100000000,A01A3A,5,1548120098000
1548120105437.5000000000,1,-48.8200000000,A01A3A,5,1548120098000
1548120105453.1201171875,1,-51.4300000000,A01A3A,5,1548120098000
1548120105468.7500000000,1,-56.6200000000,A01A3A,5,1548120098000
1548120105484.3798828125,1,-64.9200000000,A01A3A,5,1548120098000
1548120105500.0000000000,1,-75.4600000000,A01A3A,5,1548120098000
1548120105515.6201171875,1,-85.9100000000,A01A3A,5,1548120098000
1548120105531.2500000000,1,-92.8100000000,A01A3A,5,1548120098000
1548120105546.8798828125,1,-92.5700000000,A01A3A,5,1548120098000
1548120105562.5000000000,1,-82.6600000000,A01A3A,5,1548120098000
1548120105578.1201171875,1,-62.7000000000,A01A3A,5,1548120098000
1548120105593.7500000000,1,-34.8300000000,A01A3A,5,1548120098000
1548120105609.3798828125,1,-3.1900000000,A01A3A,5,1548120098000
1548120105625.0000000000,1,27.3700000000,A01A3A,5,1548120098000
1548120105640.6201171875,1,52.7300000000,A01A3A,5,1548120098000
1548120105656.2500000000,1,70.5800000000,A01A3A,5,1548120098000
1548120105671.8798828125,1,80.5900000000,A01A3A,5,1548120098000
1548120105687.5000000000,1,83.9100000000,A01A3A,5,1548120098000
1548120105703.1201171875,1,82.2800000000,A01A3A,5,1548120098000
1548120105718.7500000000,1,77.2400000000,A01A3A,5,1548120098000
1548120105734.3798828125,1,69.8700000000,A01A3A,5,1548120098000
1548120105750.0000000000,1,60.8800000000,A01A3A,5,1548120098000
1548120105765.6201171875,1,50.9600000000,A01A3A,5,1548120098000
1548120105781.2500000000,1,41.0200000000,A01A3A,5,1548120098000
1548120105796.8798828125,1,32.1400000000,A01A3A,5,1548120098000
1548120105812.5000000000,1,25.3000000000,A01A3A,5,1548120098000
1548120105828.1201171875,1,20.9600000000,A01A3A,5,1548120098000
1548120105843.7500000000,1,18.9800000000,A01A3A,5,1548120098000
1548120105859.3798828125,1,18.6600000000,A01A3A,5,1548120098000
1548120105875.0000000000,1,19.1600000000,A01A3A,5,1548120098000
1548120105890.6201171875,1,19.9500000000,A01A3A,5,1548120098000
1548120105906.2500000000,1,20.9000000000,A01A3A,5,1548120098000
1548120105921.8798828125,1,22.3100000000,A01A3A,5,1548120098000
1548120105937.5000000000,1,24.3300000000,A01A3A,5,1548120098000
1548120105953.1201171875,1,26.6500000000,A01A3A,5,1548120098000
1548120105968.7500000000,1,28.2600000000,A01A3A,5,1548120098000
1548120105984.3798828125,1,27.7100000000,A01A3A,5,1548120098000
1548120106000.0000000000,1,23.7200000000,A01A3A,5,1548120098000
1548120106015.6201171875,1,15.8300000000,A01A3A,5,1548120098000
1548120106031.2500000000,1,4.7700000000,A01A3A,5,1548120098000
1548120106046.8798828125,1,-7.8000000000,A01A3A,5,1548120098000
1548120106062.5000000000,1,-19.8500000000,A01A3A,5,1548120098000
1548120106078.1201171875,1,-29.8000000000,A01A3A,5,1548120098000
1548120106093.7500000000,1,-37.0600000000,A01A3A,5,1548120098000
1548120106109.3798828125,1,-42.1700000000,A01A3A,5,1548120098000
1548120106125.0000000000,1,-46.5300000000,A01A3A,5,1548120098000
1548120106140.6201171875,1,-51.8600000000,A01A3A,5,1548120098000
1548120106156.2500000000,1,-59.5500000000,A01A3A,5,1548120098000
1548120106171.8798828125,1,-70.2300000000,A01A3A,5,1548120098000
1548120106187.5000000000,1,-83.2900000000,A01A3A,5,1548120098000
1548120106203.1201171875,1,-96.7600000000,A01A3A,5,1548120098000
1548120106218.7500000000,1,-107.4700000000,A01A3A,5,1548120098000
1548120106234.3798828125,1,-111.6300000000,A01A3A,5,1548120098000
1548120106250.0000000000,1,-106.0100000000,A01A3A,5,1548120098000
1548120106265.6201171875,1,-89.0700000000,A01A3A,5,1548120098000
1548120106281.2500000000,1,-61.8500000000,A01A3A,5,1548120098000
1548120106296.8798828125,1,-27.9600000000,A01A3A,5,1548120098000
1548120106312.5000000000,1,7.4600000000,A01A3A,5,1548120098000
1548120106328.1201171875,1,39.2800000000,A01A3A,5,1548120098000
1548120106343.7500000000,1,63.9300000000,A01A3A,5,1548120098000
1548120106359.3798828125,1,80.1000000000,A01A3A,5,1548120098000
1548120106375.0000000000,1,88.5200000000,A01A3A,5,1548120098000
1548120106390.6201171875,1,91.0000000000,A01A3A,5,1548120098000
1548120106406.2500000000,1,89.3800000000,A01A3A,5,1548120098000
1548120106421.8798828125,1,84.9100000000,A01A3A,5,1548120098000
1548120106437.5000000000,1,78.3100000000,A01A3A,5,1548120098000
1548120106453.1201171875,1,70.1900000000,A01A3A,5,1548120098000
1548120106468.7500000000,1,61.4100000000,A01A3A,5,1548120098000
1548120106484.3798828125,1,53.1200000000,A01A3A,5,1548120098000
1548120106500.0000000000,1,46.3200000000,A01A3A,5,1548120098000
1548120106515.6201171875,1,41.4400000000,A01A3A,5,1548120098000
1548120106531.2500000000,1,38.1200000000,A01A3A,5,1548120098000
1548120106546.8798828125,1,35.4300000000,A01A3A,5,1548120098000
1548120106562.5000000000,1,32.4200000000,A01A3A,5,1548120098000
1548120106578.1201171875,1,28.6700000000,A01A3A,5,1548120098000
1548120106593.7500000000,1,24.4700000000,A01A3A,5,1548120098000
1548120106609.3798828125,1,20.6900000000,A01A3A,5,1548120098000
1548120106625.0000000000,1,18.2100000000,A01A3A,5,1548120098000
1548120106640.6201171875,1,17.3200000000,A01A3A,5,1548120098000
1548120106656.2500000000,1,17.5000000000,A01A3A,5,1548120098000
1548120106671.8798828125,1,17.4100000000,A01A3A,5,1548120098000
1548120106687.5000000000,1,15.5300000000,A01A3A,5,1548120098000
1548120106703.1201171875,1,10.6800000000,A01A3A,5,1548120098000
1548120106718.7500000000,1,2.6600000000,A01A3A,5,1548120098000
1548120106734.3798828125,1,-7.7300000000,A01A3A,5,1548120098000
1548120106750.0000000000,1,-18.8800000000,A01A3A,5,1548120098000
1548120106765.6201171875,1,-29.0700000000,A01A3A,5,1548120098000
1548120106781.2500000000,1,-37.0800000000,A01A3A,5,1548120098000
1548120106796.8798828125,1,-42.6500000000,A01A3A,5,1548120098000
1548120106812.5000000000,1,-46.5700000000,A01A3A,5,1548120098000
1548120106828.1201171875,1,-50.3300000000,A01A3A,5,1548120098000
1548120106843.7500000000,1,-55.6200000000,A01A3A,5,1548120098000
1548120106859.3798828125,1,-63.7200000000,A01A3A,5,1548120098000
1548120106875.0000000000,1,-75.0600000000,A01A3A,5,1548120098000
1548120106890.6201171875,1,-88.7700000000,A01A3A,5,1548120098000
1548120106906.2500000000,1,-102.5700000000,A01A3A,5,1548120098000
1548120106921.8798828125,1,-113.0000000000,A01A3A,5,1548120098000
1548120106937.5000000000,1,-116.1800000000,A01A3A,5,1548120098000
1548120106953.1201171875,1,-109.0100000000,A01A3A,5,1548120098000
1548120106968.7500000000,1,-90.3300000000,A01A3A,5,1548120098000
1548120106984.3798828125,1,-61.6500000000,A01A3A,5,1548120098000
1548120107000.0000000000,1,-26.9400000000,A01A3A,5,1548120098000
1548120107015.6201171875,1,8.5200000000,A01A3A,5,1548120098000
1548120107031.2500000000,1,39.7000000000,A01A3A,5,1548120098000
1548120107046.8798828125,1,63.2000000000,A01A3A,5,1548120098000
1548120107062.5000000000,1,77.8200000000,A01A3A,5,1548120098000
1548120107078.1201171875,1,84.3000000000,A01A3A,5,1548120098000
1548120107093.7500000000,1,84.4300000000,A01A3A,5,1548120098000
1548120107109.3798828125,1,80.1500000000,A01A3A,5,1548120098000
1548120107125.0000000000,1,72.9700000000,A01A3A,5,1548120098000
1548120107140.6201171875,1,63.8700000000,A01A3A,5,1548120098000
1548120107156.2500000000,1,53.5400000000,A01A3A,5,1548120098000
1548120107171.8798828125,1,42.6800000000,A01A3A,5,1548120098000
1548120107187.5000000000,1,32.1000000000,A01A3A,5,1548120098000
1548120107203.1201171875,1,22.7500000000,A01A3A,5,1548120098000
1548120107218.7500000000,1,15.4600000000,A01A3A,5,1548120098000
1548120107234.3798828125,1,10.7700000000,A01A3A,5,1548120098000
1548120107250.0000000000,1,8.8000000000,A01A3A,5,1548120098000
1548120107265.6201171875,1,9.2700000000,A01A3A,5,1548120098000
1548120107281.2500000000,1,11.5900000000,A01A3A,5,1548120098000
1548120107296.8798828125,1,14.9500000000,A01A3A,5,1548120098000
1548120107312.5000000000,1,18.4400000000,A01A3A,5,1548120098000
1548120107328.1201171875,1,21.1300000000,A01A3A,5,1548120098000
1548120107343.7500000000,1,22.1300000000,A01A3A,5,1548120098000
1548120107359.3798828125,1,20.7200000000,A01A3A,5,1548120098000
1548120107375.0000000000,1,16.5400000000,A01A3A,5,1548120098000
1548120107390.6201171875,1,9.7000000000,A01A3A,5,1548120098000
1548120107406.2500000000,1,0.8800000000,A01A3A,5,1548120098000
1548120107421.8798828125,1,-8.8500000000,A01A3A,5,1548120098000
1548120107437.5000000000,1,-18.2900000000,A01A3A,5,1548120098000
1548120107453.1201171875,1,-26.5300000000,A01A3A,5,1548120098000
1548120107468.7500000000,1,-33.2400000000,A01A3A,5,1548120098000
1548120107484.3798828125,1,-38.8200000000,A01A3A,5,1548120098000
1548120107500.0000000000,1,-44.3200000000,A01A3A,5,1548120098000
1548120107515.6201171875,1,-51.0800000000,A01A3A,5,1548120098000
1548120107531.2500000000,1,-60.1900000000,A01A3A,5,1548120098000
1548120107546.8798828125,1,-71.7900000000,A01A3A,5,1548120098000
1548120107562.5000000000,1,-84.6400000000,A01A3A,5,1548120098000
1548120107578.1201171875,1,-95.9500000000,A01A3A,5,1548120098000
1548120107593.7500000000,1,-102.0000000000,A01A3A,5,1548120098000
1548120107609.3798828125,1,-99.3300000000,A01A3A,5,1548120098000
1548120107625.0000000000,1,-85.9300000000,A01A3A,5,1548120098000
1548120107640.6201171875,1,-62.3100000000,A01A3A,5,1548120098000
1548120107656.2500000000,1,-31.5200000000,A01A3A,5,1548120098000
1548120107671.8798828125,1,1.7100000000,A01A3A,5,1548120098000
1548120107687.5000000000,1,32.3500000000,A01A3A,5,1548120098000
1548120107703.1201171875,1,56.5400000000,A01A3A,5,1548120098000
1548120107718.7500000000,1,72.4000000000,A01A3A,5,1548120098000
1548120107734.3798828125,1,80.0100000000,A01A3A,5,1548120098000
1548120107750.0000000000,1,80.6800000000,A01A3A,5,1548120098000
1548120107765.6201171875,1,76.1200000000,A01A3A,5,1548120098000
1548120107781.2500000000,1,67.8500000000,A01A3A,5,1548120098000
1548120107796.8798828125,1,56.9900000000,A01A3A,5,1548120098000
1548120107812.5000000000,1,44.5300000000,A01A3A,5,1548120098000
1548120107828.1201171875,1,31.5500000000,A01A3A,5,1548120098000
1548120107843.7500000000,1,19.2700000000,A01A3A,5,1548120098000
1548120107859.3798828125,1,8.9400000000,A01A3A,5,1548120098000
1548120107875.0000000000,1,1.5700000000,A01A3A,5,1548120098000
1548120107890.6201171875,1,-2.4000000000,A01A3A,5,1548120098000
1548120107906.2500000000,1,-3.0300000000,A01A3A,5,1548120098000
1548120107921.8798828125,1,-0.9000000000,A01A3A,5,1548120098000
1548120107937.5000000000,1,3.1400000000,A01A3A,5,1548120098000
1548120107953.1201171875,1,8.1300000000,A01A3A,5,1548120098000
1548120107968.7500000000,1,13.0400000000,A01A3A,5,1548120098000
1548120107984.3798828125,1,16.8200000000,A01A3A,5,1548120098000
1548120108000.0000000000,1,18.4800000000,A01A3A,5,1548120098000
1548120108015.6201171875,1,17.2100000000,A01A3A,5,1548120098000
1548120108031.2500000000,1,12.6000000000,A01A3A,5,1548120098000
1548120108046.8798828125,1,4.9000000000,A01A3A,5,1548120098000
1548120108062.5000000000,1,-5.0200000000,A01A3A,5,1548120098000
1548120108078.1201171875,1,-15.8400000000,A01A3A,5,1548120098000
1548120108093.7500000000,1,-26.1500000000,A01A3A,5,1548120098000
1548120108109.3798828125,1,-34.9900000000,A01A3A,5,1548120098000
1548120108125.0000000000,1,-42.1200000000,A01A3A,5,1548120098000
1548120108140.6201171875,1,-48.1800000000,A01A3A,5,1548120098000
1548120108156.2500000000,1,-54.4800000000,A01A3A,5,1548120098000
1548120108171.8798828125,1,-62.5500000000,A01A3A,5,1548120098000
1548120108187.5000000000,1,-73.4800000000,A01A3A,5,1548120098000
1548120108203.1201171875,1,-87.2500000000,A01A3A,5,1548120098000
1548120108218.7500000000,1,-102.2200000000,A01A3A,5,1548120098000
1548120108234.3798828125,1,-115.1100000000,A01A3A,5,1548120098000
1548120108250.0000000000,1,-121.7300000000,A01A3A,5,1548120098000
1548120108265.6201171875,1,-118.2600000000,A01A3A,5,1548120098000
1548120108281.2500000000,1,-102.6500000000,A01A3A,5,1548120098000
1548120108296.8798828125,1,-75.6300000000,A01A3A,5,1548120098000
1548120108312.5000000000,1,-40.7200000000,A01A3A,5,1548120098000
1548120108328.1201171875,1,-3.2200000000,A01A3A,5,1548120098000
1548120108343.7500000000,1,31.3000000000,A01A3A,5,1548120098000
1548120108359.3798828125,1,58.6800000000,A01A3A,5,1548120098000
1548120108375.0000000000,1,76.9500000000,A01A3A,5,1548120098000
1548120108390.6201171875,1,86.3100000000,A01A3A,5,1548120098000
1548120108406.2500000000,1,88.4200000000,A01A3A,5,1548120098000
1548120108421.8798828125,1,85.3900000000,A01A3A,5,1548120098000
1548120108437.5000000000,1,79.1500000000,A01A3A,5,1548120098000
1548120108453.1201171875,1,71.0600000000,A01A3A,5,1548120098000
1548120108468.7500000000,1,62.0500000000,A01A3A,5,1548120098000
1548120108484.3798828125,1,52.8300000000,A01A3A,5,1548120098000
1548120108500.0000000000,1,44.0500000000,A01A3A,5,1548120098000
1548120108515.6201171875,1,36.3500000000,A01A3A,5,1548120098000
1548120108531.2500000000,1,30.2500000000,A01A3A,5,1548120098000
1548120108546.8798828125,1,26.0700000000,A01A3A,5,1548120098000
1548120108562.5000000000,1,23.9000000000,A01A3A,5,1548120098000
1548120108578.1201171875,1,23.6100000000,A01A3A,5,1548120098000
1548120108593.7500000000,1,24.9000000000,A01A3A,5,1548120098000
1548120108609.3798828125,1,27.3800000000,A01A3A,5,1548120098000
1548120108625.0000000000,1,30.5700000000,A01A3A,5,1548120098000
1548120108640.6201171875,1,33.8000000000,A01A3A,5,1548120098000
1548120108656.2500000000,1,36.1800000000,A01A3A,5,1548120098000
1548120108671.8798828125,1,36.6900000000,A01A3A,5,1548120098000
1548120108687.5000000000,1,34.3700000000,A01A3A,5,1548120098000
1548120108703.1201171875,1,28.6500000000,A01A3A,5,1548120098000
1548120108718.7500000000,1,19.6200000000,A01A3A,5,1548120098000
1548120108734.3798828125,1,8.1400000000,A01A3A,5,1548120098000
1548120108750.0000000000,1,-4.3900000000,A01A3A,5,1548120098000
1548120108765.6201171875,1,-16.3900000000,A01A3A,5,1548120098000
1548120108781.2500000000,1,-26.6800000000,A01A3A,5,1548120098000
1548120108796.8798828125,1,-34.8400000000,A01A3A,5,1548120098000
1548120108812.5000000000,1,-41.4100000000,A01A3A,5,1548120098000
1548120108828.1201171875,1,-47.7500000000,A01A3A,5,1548120098000
1548120108843.7500000000,1,-55.6100000000,A01A3A,5,1548120098000
1548120108859.3798828125,1,-66.3800000000,A01A3A,5,1548120098000
1548120108875.0000000000,1,-80.2900000000,A01A3A,5,1548120098000
1548120108890.6201171875,1,-95.7400000000,A01A3A,5,1548120098000
1548120108906.2500000000,1,-109.2900000000,A01A3A,5,1548120098000
1548120108921.8798828125,1,-116.4400000000,A01A3A,5,1548120098000
1548120108937.5000000000,1,-113.0500000000,A01A3A,5,1548120098000
1548120108953.1201171875,1,-97.0400000000,A01A3A,5,1548120098000
1548120108968.7500000000,1,-69.4200000000,A01A3A,5,1548120098000
1548120108984.3798828125,1,-34.2700000000,A01A3A,5,1548120098000
1548120109000.0000000000,1,2.6100000000,A01A3A,5,1548120098000
1548120109015.6201171875,1,35.5900000000,A01A3A,5,1548120098000
1548120109031.2500000000,1,60.9100000000,A01A3A,5,1548120098000
1548120109046.8798828125,1,77.4200000000,A01A3A,5,1548120098000
1548120109062.5000000000,1,86.1200000000,A01A3A,5,1548120098000
1548120109078.1201171875,1,89.0000000000,A01A3A,5,1548120098000
1548120109093.7500000000,1,87.8700000000,A01A3A,5,1548120098000
1548120109109.3798828125,1,83.8000000000,A01A3A,5,1548120098000
1548120109125.0000000000,1,77.2500000000,A01A3A,5,1548120098000
1548120109140.6201171875,1,68.6700000000,A01A3A,5,1548120098000
1548120109156.2500000000,1,58.9600000000,A01A3A,5,1548120098000
1548120109171.8798828125,1,49.5400000000,A01A3A,5,1548120098000
1548120109187.5000000000,1,41.9400000000,A01A3A,5,1548120098000
1548120109203.1201171875,1,37.1800000000,A01A3A,5,1548120098000
1548120109218.7500000000,1,35.4600000000,A01A3A,5,1548120098000
1548120109234.3798828125,1,36.1000000000,A01A3A,5,1548120098000
1548120109250.0000000000,1,37.9100000000,A01A3A,5,1548120098000
1548120109265.6201171875,1,39.7500000000,A01A3A,5,1548120098000
1548120109281.2500000000,1,40.9600000000,A01A3A,5,1548120098000
1548120109296.8798828125,1,41.5100000000,A01A3A,5,1548120098000
1548120109312.5000000000,1,41.7000000000,A01A3A,5,1548120098000
1548120109328.1201171875,1,41.8300000000,A01A3A,5,1548120098000
1548120109343.7500000000,1,41.7400000000,A01A3A,5,1548120098000
1548120109359.3798828125,1,40.7400000000,A01A3A,5,1548120098000
1548120109375.0000000000,1,37.7500000000,A01A3A,5,1548120098000
1548120109390.6201171875,1,31.8200000000,A01A3A,5,1548120098000
1548120109406.2500000000,1,22.6300000000,A01A3A,5,1548120098000
1548120109421.8798828125,1,10.7800000000,A01A3A,5,1548120098000
1548120109437.5000000000,1,-2.2800000000,A01A3A,5,1548120098000
1548120109453.1201171875,1,-14.7000000000,A01A3A,5,1548120098000
1548120109468.7500000000,1,-24.9000000000,A01A3A,5,1548120098000
1548120109484.3798828125,1,-32.1600000000,A01A3A,5,1548120098000
1548120109500.0000000000,1,-36.9100000000,A01A3A,5,1548120098000
1548120109515.6201171875,1,-40.5800000000,A01A3A,5,1548120098000
1548120109531.2500000000,1,-45.0800000000,A01A3A,5,1548120098000
1548120109546.8798828125,1,-52.1500000000,A01A3A,5,1548120098000
1548120109562.5000000000,1,-62.7400000000,A01A3A,5,1548120098000
1548120109578.1201171875,1,-76.5200000000,A01A3A,5,1548120098000
1548120109593.7500000000,1,-91.7400000000,A01A3A,5,1548120098000
1548120109609.3798828125,1,-105.2600000000,A01A3A,5,1548120098000
1548120109625.0000000000,1,-113.2200000000,A01A3A,5,1548120098000
1548120109640.6201171875,1,-111.9800000000,A01A3A,5,1548120098000
1548120109656.2500000000,1,-99.3300000000,A01A3A,5,1548120098000
1548120109671.8798828125,1,-75.4900000000,A01A3A,5,1548120098000
1548120109687.5000000000,1,-43.2900000000,A01A3A,5,1548120098000
1548120109703.1201171875,1,-7.5800000000,A01A3A,5,1548120098000
1548120109718.7500000000,1,26.2700000000,A01A3A,5,1548120098000
1548120109734.3798828125,1,53.9100000000,A01A3A,5,1548120098000
1548120109750.0000000000,1,73.1300000000,A01A3A,5,1548120098000
1548120109765.6201171875,1,84.0300000000,A01A3A,5,1548120098000
1548120109781.2500000000,1,88.3000000000,A01A3A,5,1548120098000
1548120109796.8798828125,1,88.0500000000,A01A3A,5,1548120098000
1548120109812.5000000000,1,84.8600000000,A01A3A,5,1548120098000
1548120109828.1201171875,1,79.4500000000,A01A3A,5,1548120098000
1548120109843.7500000000,1,71.9800000000,A01A3A,5,1548120098000
1548120109859.3798828125,1,62.6700000000,A01A3A,5,1548120098000
1548120109875.0000000000,1,52.3300000000,A01A3A,5,1548120098000
1548120109890.6201171875,1,42.4200000000,A01A3A,5,1548120098000
1548120109906.2500000000,1,34.6100000000,A01A3A,5,1548120098000
1548120109921.8798828125,1,30.1700000000,A01A3A,5,1548120098000
1548120109937.5000000000,1,29.4400000000,A01A3A,5,1548120098000
1548120109953.1201171875,1,31.6600000000,A01A3A,5,1548120098000
1548120109968.7500000000,1,35.3400000000,A01A3A,5,1548120098000
1548120109984.3798828125,1,38.9300000000,A01A3A,5,1548120098000
1548120110000.0000000000,1,41.4300000000,A01A3A,5,1548120098000
1548120110015.6201171875,1,42.6500000000,A01A3A,5,1548120098000
1548120110031.2500000000,1,43.0600000000,A01A3A,5,1548120098000
1548120110046.8798828125,1,43.2000000000,A01A3A,5,1548120098000
1548120110062.5000000000,1,43.1200000000,A01A3A,5,1548120098000
1548120110078.1201171875,1,42.1700000000,A01A3A,5,1548120098000
1548120110093.7500000000,1,39.2100000000,A01A3A,5,1548120098000
1548120110109.3798828125,1,33.1700000000,A01A3A,5,1548120098000
1548120110125.0000000000,1,23.7200000000,A01A3A,5,1548120098000
1548120110140.6201171875,1,11.5100000000,A01A3A,5,1548120098000
1548120110156.2500000000,1,-1.8900000000,A01A3A,5,1548120098000
1548120110171.8798828125,1,-14.6000000000,A01A3A,5,1548120098000
1548120110187.5000000000,1,-25.0600000000,A01A3A,5,1548120098000
1548120110203.1201171875,1,-32.6700000000,A01A3A,5,1548120098000
1548120110218.7500000000,1,-37.8200000000,A01A3A,5,1548120098000
1548120110234.3798828125,1,-41.7500000000,A01A3A,5,1548120098000
1548120110250.0000000000,1,-46.0900000000,A01A3A,5,1548120098000
1548120110265.6201171875,1,-52.3000000000,A01A3A,5,1548120098000
1548120110281.2500000000,1,-61.3000000000,A01A3A,5,1548120098000
1548120110296.8798828125,1,-73.0900000000,A01A3A,5,1548120098000
1548120110312.5000000000,1,-86.5600000000,A01A3A,5,1548120098000
1548120110328.1201171875,1,-99.3600000000,A01A3A,5,1548120098000
1548120110343.7500000000,1,-108.2700000000,A01A3A,5,1548120098000
1548120110359.3798828125,1,-109.8300000000,A01A3A,5,1548120098000
1548120110375.0000000000,1,-101.4200000000,A01A3A,5,1548120098000
1548120110390.6201171875,1,-82.3000000000,A01A3A,5,1548120098000
1548120110406.2500000000,1,-54.1300000000,A01A3A,5,1548120098000
1548120110421.8798828125,1,-20.7600000000,A01A3A,5,1548120098000
1548120110437.5000000000,1,12.8800000000,A01A3A,5,1548120098000
1548120110453.1201171875,1,42.1800000000,A01A3A,5,1548120098000
1548120110468.7500000000,1,64.0900000000,A01A3A,5,1548120098000
1548120110484.3798828125,1,77.6200000000,A01A3A,5,1548120098000
1548120110500.0000000000,1,83.5000000000,A01A3A,5,1548120098000
1548120110515.6201171875,1,83.3700000000,A01A3A,5,1548120098000
1548120110531.2500000000,1,78.9300000000,A01A3A,5,1548120098000
1548120110546.8798828125,1,71.5000000000,A01A3A,5,1548120098000
1548120110562.5000000000,1,62.0100000000,A01A3A,5,1548120098000
1548120110578.1201171875,1,51.3900000000,A01A3A,5,1548120098000
1548120110593.7500000000,1,40.7300000000,A01A3A,5,1548120098000
1548120110609.3798828125,1,31.3100000000,A01A3A,5,1548120098000
1548120110625.0000000000,1,24.3000000000,A01A3A,5,1548120098000
1548120110640.6201171875,1,20.3700000000,A01A3A,5,1548120098000
1548120110656.2500000000,1,19.4500000000,A01A3A,5,1548120098000
1548120110671.8798828125,1,20.8400000000,A01A3A,5,1548120098000
1548120110687.5000000000,1,23.5700000000,A01A3A,5,1548120098000
1548120110703.1201171875,1,26.7700000000,A01A3A,5,1548120098000
1548120110718.7500000000,1,29.9200000000,A01A3A,5,1548120098000
1548120110734.3798828125,1,32.7700000000,A01A3A,5,1548120098000
1548120110750.0000000000,1,35.1100000000,A01A3A,5,1548120098000
1548120110765.6201171875,1,36.5200000000,A01A3A,5,1548120098000
1548120110781.2500000000,1,36.2600000000,A01A3A,5,1548120098000
1548120110796.8798828125,1,33.4400000000,A01A3A,5,1548120098000
1548120110812.5000000000,1,27.4700000000,A01A3A,5,1548120098000
1548120110828.1201171875,1,18.3900000000,A01A3A,5,1548120098000
1548120110843.7500000000,1,7.0600000000,A01A3A,5,1548120098000
1548120110859.3798828125,1,-5.0100000000,A01A3A,5,1548120098000
1548120110875.0000000000,1,-16.1200000000,A01A3A,5,1548120098000
1548120110890.6201171875,1,-24.9900000000,A01A3A,5,1548120098000
1548120110906.2500000000,1,-31.1900000000,A01A3A,5,1548120098000
1548120110921.8798828125,1,-35.3800000000,A01A3A,5,1548120098000
1548120110937.5000000000,1,-39.1400000000,A01A3A,5,1548120098000
1548120110953.1201171875,1,-44.4100000000,A01A3A,5,1548120098000
1548120110968.7500000000,1,-52.7900000000,A01A3A,5,1548120098000
1548120110984.3798828125,1,-64.6900000000,A01A3A,5,1548120098000
1548120111000.0000000000,1,-78.8600000000,A01A3A,5,1548120098000
1548120111015.6201171875,1,-92.3400000000,A01A3A,5,1548120098000
1548120111031.2500000000,1,-101.1800000000,A01A3A,5,1548120098000
1548120111046.8798828125,1,-101.5600000000,A01A3A,5,1548120098000
1548120111062.5000000000,1,-91.1900000000,A01A3A,5,1548120098000
1548120111078.1201171875,1,-70.1500000000,A01A3A,5,1548120098000
1548120111093.7500000000,1,-41.1200000000,A01A3A,5,1548120098000
1548120111109.3798828125,1,-8.5400000000,A01A3A,5,1548120098000
1548120111125.0000000000,1,22.6900000000,A01A3A,5,1548120098000
1548120111140.6201171875,1,48.6000000000,A01A3A,5,1548120098000
1548120111156.2500000000,1,66.9800000000,A01A3A,5,1548120098000
1548120111171.8798828125,1,77.5500000000,A01A3A,5,1548120098000
1548120111187.5000000000,1,81.3800000000,A01A3A,5,1548120098000
1548120111203.1201171875,1,80.1000000000,A01A3A,5,1548120098000
1548120111218.7500000000,1,75.2400000000,A01A3A,5,1548120098000
1548120111234.3798828125,1,67.8500000000,A01A3A,5,1548120098000
1548120111250.0000000000,1,58.6200000000,A01A3A,5,1548120098000
1548120111265.6201171875,1,48.2500000000,A01A3A,5,1548120098000
1548120111281.2500000000,1,37.6100000000,A01A3A,5,1548120098000
1548120111296.8798828125,1,27.9500000000,A01A3A,5,1548120098000
1548120111312.5000000000,1,20.5600000000,A01A3A,5,1548120098000
1548120111328.1201171875,1,16.4300000000,A01A3A,5,1548120098000
1548120111343.7500000000,1,15.8500000000,A01A3A,5,1548120098000
1548120111359.3798828125,1,18.1500000000,A01A3A,5,1548120098000
1548120111375.0000000000,1,21.9900000000,A01A3A,5,1548120098000
1548120111390.6201171875,1,25.8000000000,A01A3A,5,1548120098000
1548120111406.2500000000,1,28.4000000000,A01A3A,5,1548120098000
1548120111421.8798828125,1,29.3700000000,A01A3A,5,1548120098000
1548120111437.5000000000,1,29.0300000000,A01A3A,5,1548120098000
1548120111453.1201171875,1,28.0600000000,A01A3A,5,1548120098000
1548120111468.7500000000,1,26.8900000000,A01A3A,5,1548120098000
1548120111484.3798828125,1,25.3100000000,A01A3A,5,1548120098000
1548120111500.0000000000,1,22.4600000000,A01A3A,5,1548120098000
1548120111515.6201171875,1,17.2800000000,A01A3A,5,1548120098000
1548120111531.2500000000,1,9.1600000000,A01A3A,5,1548120098000
1548120111546.8798828125,1,-1.6200000000,A01A3A,5,1548120098000
1548120111562.5000000000,1,-13.7800000000,A01A3A,5,1548120098000
1548120111578.1201171875,1,-25.4800000000,A01A3A,5,1548120098000
1548120111593.7500000000,1,-35.0700000000,A01A3A,5,1548120098000
1548120111609.3798828125,1,-41.7100000000,A01A3A,5,1548120098000
1548120111625.0000000000,1,-45.7300000000,A01A3A,5,1548120098000
1548120111640.6201171875,1,-48.4500000000,A01A3A,5,1548120098000
1548120111656.2500000000,1,-51.7800000000,A01A3A,5,1548120098000
1548120111671.8798828125,1,-57.5300000000,A01A3A,5,1548120098000
1548120111687.5000000000,1,-66.8400000000,A01A3A,5,1548120098000
1548120111703.1201171875,1,-79.7800000000,A01A3A,5,1548120098000
1548120111718.7500000000,1,-94.9400000000,A01A3A,5,1548120098000
1548120111734.3798828125,1,-109.5200000000,A01A3A,5,1548120098000
1548120111750.0000000000,1,-119.6700000000,A01A3A,5,1548120098000
1548120111765.6201171875,1,-121.4200000000,A01A3A,5,1548120098000
1548120111781.2500000000,1,-111.9700000000,A01A3A,5,1548120098000
1548120111796.8798828125,1,-90.8400000000,A01A3A,5,1548120098000
1548120111812.5000000000,1,-60.3900000000,A01A3A,5,1548120098000
1548120111828.1201171875,1,-25.2700000000,A01A3A,5,1548120098000
1548120111843.7500000000,1,9.0000000000,A01A3A,5,1548120098000
1548120111859.3798828125,1,37.7500000000,A01A3A,5,1548120098000
1548120111875.0000000000,1,58.4200000000,A01A3A,5,1548120098000
1548120111890.6201171875,1,70.8500000000,A01A3A,5,1548120098000
1548120111906.2500000000,1,76.5700000000,A01A3A,5,1548120098000
1548120111921.8798828125,1,77.6400000000,A01A3A,5,1548120098000
1548120111937.5000000000,1,75.6400000000,A01A3A,5,1548120098000
1548120111953.1201171875,1,71.3500000000,A01A3A,5,1548120098000
1548120111968.7500000000,1,65.0000000000,A01A3A,5,1548120098000
1548120111984.3798828125,1,56.9000000000,A01A3A,5,1548120098000
1548120112000.0000000000,1,47.8900000000,A01A3A,5,1548120098000
1548120112015.6201171875,1,39.3100000000,A01A3A,5,1548120098000
1548120112031.2500000000,1,32.6700000000,A01A3A,5,1548120098000
1548120112046.8798828125,1,28.9900000000,A01A3A,5,1548120098000
1548120112062.5000000000,1,28.4100000000,A01A3A,5,1548120098000
1548120112078.1201171875,1,30.1300000000,A01A3A,5,1548120098000
1548120112093.7500000000,1,32.7800000000,A01A3A,5,1548120098000
1548120112109.3798828125,1,35.0000000000,A01A3A,5,1548120098000
1548120112125.0000000000,1,35.9400000000,A01A3A,5,1548120098000
1548120112140.6201171875,1,35.5500000000,A01A3A,5,1548120098000
1548120112156.2500000000,1,34.3200000000,A01A3A,5,1548120098000
1548120112171.8798828125,1,32.9300000000,A01A3A,5,1548120098000
1548120112187.5000000000,1,31.7300000000,A01A3A,5,1548120098000
1548120112203.1201171875,1,30.4700000000,A01A3A,5,1548120098000
1548120112218.7500000000,1,28.3400000000,A01A3A,5,1548120098000
1548120112234.3798828125,1,24.3200000000,A01A3A,5,1548120098000
1548120112250.0000000000,1,17.6600000000,A01A3A,5,1548120098000
1548120112265.6201171875,1,8.2600000000,A01A3A,5,1548120098000
1548120112281.2500000000,1,-3.1500000000,A01A3A,5,1548120098000
1548120112296.8798828125,1,-15.1700000000,A01A3A,5,1548120098000
1548120112312.5000000000,1,-26.2000000000,A01A3A,5,1548120098000
1548120112328.1201171875,1,-34.9700000000,A01A3A,5,1548120098000
1548120112343.7500000000,1,-41.0500000000,A01A3A,5,1548120098000
1548120112359.3798828125,1,-44.9600000000,A01A3A,5,1548120098000
1548120112375.0000000000,1,-47.9600000000,A01A3A,5,1548120098000
1548120112390.6201171875,1,-51.7000000000,A01A3A,5,1548120098000
1548120112406.2500000000,1,-57.5500000000,A01A3A,5,1548120098000
1548120112421.8798828125,1,-66.2700000000,A01A3A,5,1548120098000
1548120112437.5000000000,1,-77.6300000000,A01A3A,5,1548120098000
1548120112453.1201171875,1,-90.2700000000,A01A3A,5,1548120098000
1548120112468.7500000000,1,-101.7400000000,A01A3A,5,1548120098000
1548120112484.3798828125,1,-108.8500000000,A01A3A,5,1548120098000
1548120112500.0000000000,1,-108.3800000000,A01A3A,5,1548120098000
1548120112515.6201171875,1,-98.0400000000,A01A3A,5,1548120098000
1548120112531.2500000000,1,-77.4300000000,A01A3A,5,1548120098000
1548120112546.8798828125,1,-48.5400000000,A01A3A,5,1548120098000
1548120112562.5000000000,1,-15.3700000000,A01A3A,5,1548120098000
1548120112578.1201171875,1,17.1500000000,A01A3A,5,1548120098000
1548120112593.7500000000,1,44.5900000000,A01A3A,5,1548120098000
1548120112609.3798828125,1,64.3000000000,A01A3A,5,1548120098000
1548120112625.0000000000,1,75.7800000000,A01A3A,5,1548120098000
1548120112640.6201171875,1,80.3200000000,A01A3A,5,1548120098000
1548120112656.2500000000,1,80.0100000000,A01A3A,5,1548120098000
1548120112671.8798828125,1,76.8100000000,A01A3A,5,1548120098000
1548120112687.5000000000,1,71.9600000000,A01A3A,5,1548120098000
1548120112703.1201171875,1,66.0400000000,A01A3A,5,1548120098000
1548120112718.7500000000,1,59.3000000000,A01A3A,5,1548120098000
1548120112734.3798828125,1,52.0700000000,A01A3A,5,1548120098000
1548120112750.0000000000,1,44.9600000000,A01A3A,5,1548120098000
1548120112765.6201171875,1,38.7900000000,A01A3A,5,1548120098000
1548120112781.2500000000,1,34.2800000000,A01A3A,5,1548120098000
1548120112796.8798828125,1,31.8700000000,A01A3A,5,1548120098000
1548120112812.5000000000,1,31.5100000000,A01A3A,5,1548120098000
1548120112828.1201171875,1,32.8000000000,A01A3A,5,1548120098000
1548120112843.7500000000,1,35.1100000000,A01A3A,5,1548120098000
1548120112859.3798828125,1,37.7800000000,A01A3A,5,1548120098000
1548120112875.0000000000,1,40.2000000000,A01A3A,5,1548120098000
1548120112890.6201171875,1,41.8300000000,A01A3A,5,1548120098000
1548120112906.2500000000,1,42.1800000000,A01A3A,5,1548120098000
1548120112921.8798828125,1,40.8800000000,A01A3A,5,1548120098000
1548120112937.5000000000,1,37.7700000000,A01A3A,5,1548120098000
1548120112953.1201171875,1,32.9200000000,A01A3A,5,1548120098000
1548120112968.7500000000,1,26.6300000000,A01A3A,5,1548120098000
1548120112984.3798828125,1,19.2500000000,A01A3A,5,1548120098000
1548120113000.0000000000,1,11.0700000000,A01A3A,5,1548120098000
1548120113015.6201171875,1,2.2600000000,A01A3A,5,1548120098000
1548120113031.2500000000,1,-7.0500000000,A01A3A,5,1548120098000
1548120113046.8798828125,1,-16.5800000000,A01A3A,5,1548120098000
1548120113062.5000000000,1,-25.9100000000,A01A3A,5,1548120098000
1548120113078.1201171875,1,-34.4000000000,A01A3A,5,1548120098000
1548120113093.7500000000,1,-41.5100000000,A01A3A,5,1548120098000
1548120113109.3798828125,1,-47.0000000000,A01A3A,5,1548120098000
1548120113125.0000000000,1,-51.0900000000,A01A3A,5,1548120098000
1548120113140.6201171875,1,-54.4600000000,A01A3A,5,1548120098000
1548120113156.2500000000,1,-58.0500000000,A01A3A,5,1548120098000
1548120113171.8798828125,1,-62.8800000000,A01A3A,5,1548120098000
1548120113187.5000000000,1,-69.7800000000,A01A3A,5,1548120098000
1548120113203.1201171875,1,-79.1400000000,A01A3A,5,1548120098000
1548120113218.7500000000,1,-90.4800000000,A01A3A,5,1548120098000
1548120113234.3798828125,1,-102.1500000000,A01A3A,5,1548120098000
1548120113250.0000000000,1,-111.2900000000,A01A3A,5,1548120098000
1548120113265.6201171875,1,-114.2700000000,A01A3A,5,1548120098000
1548120113281.2500000000,1,-107.8400000000,A01A3A,5,1548120098000
1548120113296.8798828125,1,-90.3700000000,A01A3A,5,1548120098000
1548120113312.5000000000,1,-62.8400000000,A01A3A,5,1548120098000
1548120113328.1201171875,1,-28.8800000000,A01A3A,5,1548120098000
1548120113343.7500000000,1,6.2200000000,A01A3A,5,1548120098000
1548120113359.3798828125,1,37.1900000000,A01A3A,5,1548120098000
1548120113375.0000000000,1,60.3500000000,A01A3A,5,1548120098000
1548120113390.6201171875,1,74.5200000000,A01A3A,5,1548120098000
1548120113406.2500000000,1,80.6800000000,A01A3A,5,1548120098000
1548120113421.8798828125,1,81.0300000000,A01A3A,5,1548120098000
1548120113437.5000000000,1,77.7200000000,A01A3A,5,1548120098000
1548120113453.1201171875,1,72.1300000000,A01A3A,5,1548120098000
1548120113468.7500000000,1,64.8100000000,A01A3A,5,1548120098000
1548120113484.3798828125,1,55.9700000000,A01A3A,5,1548120098000
1548120113500.0000000000,1,46.1100000000,A01A3A,5,1548120098000
1548120113515.6201171875,1,36.3500000000,A01A3A,5,1548120098000
1548120113531.2500000000,1,28.2100000000,A01A3A,5,1548120098000
1548120113546.8798828125,1,23.0800000000,A01A3A,5,1548120098000
1548120113562.5000000000,1,21.5900000000,A01A3A,5,1548120098000
1548120113578.1201171875,1,23.2900000000,A01A3A,5,1548120098000
1548120113593.7500000000,1,26.8600000000,A01A3A,5,1548120098000
1548120113609.3798828125,1,30.6400000000,A01A3A,5,1548120098000
1548120113625.0000000000,1,33.3400000000,A01A3A,5,1548120098000
1548120113640.6201171875,1,34.4600000000,A01A3A,5,1548120098000
1548120113656.2500000000,1,34.3000000000,A01A3A,5,1548120098000
1548120113671.8798828125,1,33.5600000000,A01A3A,5,1548120098000
1548120113687.5000000000,1,32.6800000000,A01A3A,5,1548120098000
1548120113703.1201171875,1,31.5200000000,A01A3A,5,1548120098000
1548120113718.7500000000,1,29.2800000000,A01A3A,5,1548120098000
1548120113734.3798828125,1,24.9700000000,A01A3A,5,1548120098000
1548120113750.0000000000,1,17.9300000000,A01A3A,5,1548120098000
1548120113765.6201171875,1,8.3000000000,A01A3A,5,1548120098000
1548120113781.2500000000,1,-2.9100000000,A01A3A,5,1548120098000
1548120113796.8798828125,1,-14.1400000000,A01A3A,5,1548120098000
1548120113812.5000000000,1,-23.9000000000,A01A3A,5,1548120098000
1548120113828.1201171875,1,-31.2200000000,A01A3A,5,1548120098000
1548120113843.7500000000,1,-36.0600000000,A01A3A,5,1548120098000
1548120113859.3798828125,1,-39.2400000000,A01A3A,5,1548120098000
1548120113875.0000000000,1,-42.1200000000,A01A3A,5,1548120098000
1548120113890.6201171875,1,-46.2200000000,A01A3A,5,1548120098000
1548120113906.2500000000,1,-52.7100000000,A01A3A,5,1548120098000
1548120113921.8798828125,1,-62.0800000000,A01A3A,5,1548120098000
1548120113937.5000000000,1,-73.7500000000,A01A3A,5,1548120098000
1548120113953.1201171875,1,-85.8600000000,A01A3A,5,1548120098000
1548120113968.7500000000,1,-95.4400000000,A01A3A,5,1548120098000
1548120113984.3798828125,1,-99.0500000000,A01A3A,5,1548120098000
1548120114000.0000000000,1,-93.7000000000,A01A3A,5,1548120098000
1548120114015.6201171875,1,-78.0400000000,A01A3A,5,1548120098000
1548120114031.2500000000,1,-53.1000000000,A01A3A,5,1548120098000
1548120114046.8798828125,1,-22.2400000000,A01A3A,5,1548120098000
1548120114062.5000000000,1,9.8000000000,A01A3A,5,1548120098000
1548120114078.1201171875,1,38.3500000000,A01A3A,5,1548120098000
1548120114093.7500000000,1,60.2200000000,A01A3A,5,1548120098000
1548120114109.3798828125,1,74.2800000000,A01A3A,5,1548120098000
1548120114125.0000000000,1,81.2600000000,A01A3A,5,1548120098000
1548120114140.6201171875,1,82.7100000000,A01A3A,5,1548120098000
1548120114156.2500000000,1,80.0500000000,A01A3A,5,1548120098000
1548120114171.8798828125,1,74.0200000000,A01A3A,5,1548120098000
1548120114187.5000000000,1,64.9000000000,A01A3A,5,1548120098000
1548120114203.1201171875,1,53.0300000000,A01A3A,5,1548120098000
1548120114218.7500000000,1,39.4400000000,A01A3A,5,1548120098000
1548120114234.3798828125,1,25.9700000000,A01A3A,5,1548120098000
1548120114250.0000000000,1,14.8000000000,A01A3A,5,1548120098000
1548120114265.6201171875,1,7.6900000000,A01A3A,5,1548120098000
1548120114281.2500000000,1,5.4000000000,A01A3A,5,1548120098000
1548120114296.8798828125,1,7.3600000000,A01A3A,5,1548120098000
1548120114312.5000000000,1,11.9700000000,A01A3A,5,1548120098000
1548120114328.1201171875,1,17.2800000000,A01A3A,5,1548120098000
1548120114343.7500000000,1,21.6400000000,A01A3A,5,1548120098000
1548120114359.3798828125,1,24.1500000000,A01A3A,5,1548120098000
1548120114375.0000000000,1,24.7700000000,A01A3A,5,1548120098000
1548120114390.6201171875,1,23.9100000000,A01A3A,5,1548120098000
1548120114406.2500000000,1,22.0500000000,A01A3A,5,1548120098000
1548120114421.8798828125,1,19.3100000000,A01A3A,5,1548120098000
1548120114437.5000000000,1,15.3600000000,A01A3A,5,1548120098000
1548120114453.1201171875,1,9.6100000000,A01A3A,5,1548120098000
1548120114468.7500000000,1,1.5700000000,A01A3A,5,1548120098000
1548120114484.3798828125,1,-8.6900000000,A01A3A,5,1548120098000
1548120114500.0000000000,1,-20.4100000000,A01A3A,5,1548120098000
1548120114515.6201171875,1,-32.2700000000,A01A3A,5,1548120098000
1548120114531.2500000000,1,-42.7600000000,A01A3A,5,1548120098000
1548120114546.8798828125,1,-50.8200000000,A01A3A,5,1548120098000
1548120114562.5000000000,1,-56.1700000000,A01A3A,5,1548120098000
1548120114578.1201171875,1,-59.5100000000,A01A3A,5,1548120098000
1548120114593.7500000000,1,-62.1800000000,A01A3A,5,1548120098000
1548120114609.3798828125,1,-65.7600000000,A01A3A,5,1548120098000
1548120114625.0000000000,1,-71.5500000000,A01A3A,5,1548120098000
1548120114640.6201171875,1,-80.2100000000,A01A3A,5,1548120098000
1548120114656.2500000000,1,-91.5500000000,A01A3A,5,1548120098000
1548120114671.8798828125,1,-104.3800000000,A01A3A,5,1548120098000
1548120114687.5000000000,1,-116.4100000000,A01A3A,5,1548120098000
1548120114703.1201171875,1,-124.4300000000,A01A3A,5,1548120098000
1548120114718.7500000000,1,-124.8400000000,A01A3A,5,1548120098000
1548120114734.3798828125,1,-114.7200000000,A01A3A,5,1548120098000
1548120114750.0000000000,1,-93.0500000000,A01A3A,5,1548120098000
1548120114765.6201171875,1,-61.4200000000,A01A3A,5,1548120098000
1548120114781.2500000000,1,-23.9600000000,A01A3A,5,1548120098000
1548120114796.8798828125,1,13.7200000000,A01A3A,5,1548120098000
1548120114812.5000000000,1,46.2600000000,A01A3A,5,1548120098000
1548120114828.1201171875,1,70.0800000000,A01A3A,5,1548120098000
1548120114843.7500000000,1,84.1100000000,A01A3A,5,1548120098000
1548120114859.3798828125,1,89.5000000000,A01A3A,5,1548120098000
1548120114875.0000000000,1,88.6200000000,A01A3A,5,1548120098000
1548120114890.6201171875,1,83.8300000000,A01A3A,5,1548120098000
1548120114906.2500000000,1,76.8100000000,A01A3A,5,1548120098000
1548120114921.8798828125,1,68.3900000000,A01A3A,5,1548120098000
1548120114937.5000000000,1,58.9600000000,A01A3A,5,1548120098000
1548120114953.1201171875,1,48.9400000000,A01A3A,5,1548120098000
1548120114968.7500000000,1,39.1600000000,A01A3A,5,1548120098000
1548120114984.3798828125,1,30.7500000000,A01A3A,5,1548120098000
1548120115000.0000000000,1,24.8600000000,A01A3A,5,1548120098000
1548120115015.6201171875,1,22.1800000000,A01A3A,5,1548120098000
1548120115031.2500000000,1,22.6600000000,A01A3A,5,1548120098000
1548120115046.8798828125,1,25.4100000000,A01A3A,5,1548120098000
1548120115062.5000000000,1,29.1000000000,A01A3A,5,1548120098000
1548120115078.1201171875,1,32.4100000000,A01A3A,5,1548120098000
1548120115093.7500000000,1,34.4800000000,A01A3A,5,1548120098000
1548120115109.3798828125,1,35.1400000000,A01A3A,5,1548120098000
1548120115125.0000000000,1,34.7000000000,A01A3A,5,1548120098000
1548120115140.6201171875,1,33.5700000000,A01A3A,5,1548120098000
1548120115156.2500000000,1,31.8400000000,A01A3A,5,1548120098000
1548120115171.8798828125,1,29.0900000000,A01A3A,5,1548120098000
1548120115187.5000000000,1,24.5900000000,A01A3A,5,1548120098000
1548120115203.1201171875,1,17.6600000000,A01A3A,5,1548120098000
1548120115218.7500000000,1,8.1300000000,A01A3A,5,1548120098000
1548120115234.3798828125,1,-3.4000000000,A01A3A,5,1548120098000
1548120115250.0000000000,1,-15.7000000000,A01A3A,5,1548120098000
1548120115265.6201171875,1,-27.2400000000,A01A3A,5,1548120098000
1548120115281.2500000000,1,-36.7800000000,A01A3A,5,1548120098000
1548120115296.8798828125,1,-43.7600000000,A01A3A,5,1548120098000
1548120115312.5000000000,1,-48.5500000000,A01A3A,5,1548120098000
1548120115328.1201171875,1,-52.2200000000,A01A3A,5,1548120098000
1548120115343.7500000000,1,-56.1600000000,A01A3A,5,1548120098000
1548120115359.3798828125,1,-61.6900000000,A01A3A,5,1548120098000
1548120115375.0000000000,1,-69.6900000000,A01A3A,5,1548120098000
1548120115390.6201171875,1,-80.3700000000,A01A3A,5,1548120098000
1548120115406.2500000000,1,-93.0700000000,A01A3A,5,1548120098000
1548120115421.8798828125,1,-106.1100000000,A01A3A,5,1548120098000
1548120115437.5000000000,1,-116.6900000000,A01A3A,5,1548120098000
1548120115453.1201171875,1,-121.3000000000,A01A3A,5,1548120098000
1548120115468.7500000000,1,-116.6100000000,A01A3A,5,1548120098000
1548120115484.3798828125,1,-100.6700000000,A01A3A,5,1548120098000
1548120115500.0000000000,1,-73.9500000000,A01A3A,5,1548120098000
1548120115515.6201171875,1,-39.6000000000,A01A3A,5,1548120098000
1548120115531.2500000000,1,-2.6900000000,A01A3A,5,1548120098000
1548120115546.8798828125,1,31.3700000000,A01A3A,5,1548120098000
1548120115562.5000000000,1,58.4300000000,A01A3A,5,1548120098000
1548120115578.1201171875,1,76.6300000000,A01A3A,5,1548120098000
1548120115593.7500000000,1,86.3500000000,A01A3A,5,1548120098000
1548120115609.3798828125,1,89.3800000000,A01A3A,5,1548120098000
1548120115625.0000000000,1,87.7900000000,A01A3A,5,1548120098000
1548120115640.6201171875,1,83.1200000000,A01A3A,5,1548120098000
1548120115656.2500000000,1,76.1300000000,A01A3A,5,1548120098000
1548120115671.8798828125,1,67.2200000000,A01A3A,5,1548120098000
1548120115687.5000000000,1,56.8700000000,A01A3A,5,1548120098000
1548120115703.1201171875,1,45.9700000000,A01A3A,5,1548120098000
1548120115718.7500000000,1,35.8500000000,A01A3A,5,1548120098000
1548120115734.3798828125,1,27.8900000000,A01A3A,5,1548120098000
1548120115750.0000000000,1,23.0600000000,A01A3A,5,1548120098000
1548120115765.6201171875,1,21.6400000000,A01A3A,5,1548120098000
1548120115781.2500000000,1,23.0500000000,A01A3A,5,1548120098000
1548120115796.8798828125,1,26.1500000000,A01A3A,5,1548120098000
1548120115812.5000000000,1,29.5900000000,A01A3A,5,1548120098000
1548120115828.1201171875,1,32.3500000000,A01A3A,5,1548120098000
1548120115843.7500000000,1,33.9400000000,A01A3A,5,1548120098000
1548120115859.3798828125,1,34.4500000000,A01A3A,5,1548120098000
1548120115875.0000000000,1,34.2300000000,A01A3A,5,1548120098000
1548120115890.6201171875,1,33.4800000000,A01A3A,5,1548120098000
1548120115906.2500000000,1,32.0200000000,A01A3A,5,1548120098000
1548120115921.8798828125,1,29.2400000000,A01A3A,5,1548120098000
1548120115937.5000000000,1,24.3600000000,A01A3A,5,1548120098000
1548120115953.1201171875,1,16.8600000000,A01A3A,5,1548120098000
1548120115968.7500000000,1,6.7900000000,A01A3A,5,1548120098000
1548120115984.3798828125,1,-5.0400000000,A01A3A,5,1548120098000
1548120116000.0000000000,1,-17.3000000000,A01A3A,5,1548120098000
1548120116015.6201171875,1,-28.5100000000,A01A3A,5,1548120098000
1548120116031.2500000000,1,-37.6100000000,A01A3A,5,1548120098000
1548120116046.8798828125,1,-44.3300000000,A01A3A,5,1548120098000
1548120116062.5000000000,1,-49.2200000000,A01A3A,5,1548120098000
1548120116078.1201171875,1,-53.4300000000,A01A3A,5,1548120098000
1548120116093.7500000000,1,-58.2400000000,A01A3A,5,1548120098000
1548120116109.3798828125,1,-64.7100000000,A01A3A,5,1548120098000
1548120116125.0000000000,1,-73.3900000000,A01A3A,5,1548120098000
1548120116140.6201171875,1,-84.1800000000,A01A3A,5,1548120098000
1548120116156.2500000000,1,-96.2500000000,A01A3A,5,1548120098000
1548120116171.8798828125,1,-107.7600000000,A01A3A,5,1548120098000
1548120116187.5000000000,1,-115.9300000000,A01A3A,5,1548120098000
1548120116203.1201171875,1,-117.4500000000,A01A3A,5,1548120098000
1548120116218.7500000000,1,-109.4300000000,A01A3A,5,1548120098000
1548120116234.3798828125,1,-90.5300000000,A01A3A,5,1548120098000
1548120116250.0000000000,1,-61.8500000000,A01A3A,5,1548120098000
1548120116265.6201171875,1,-26.9700000000,A01A3A,5,1548120098000
1548120116281.2500000000,1,9.0800000000,A01A3A,5,1548120098000
1548120116296.8798828125,1,41.3000000000,A01A3A,5,1548120098000
1548120116312.5000000000,1,66.2000000000,A01A3A,5,1548120098000
1548120116328.1201171875,1,82.4500000000,A01A3A,5,1548120098000
1548120116343.7500000000,1,90.5900000000,A01A3A,5,1548120098000
1548120116359.3798828125,1,92.1800000000,A01A3A,5,1548120098000
1548120116375.0000000000,1,88.7700000000,A01A3A,5,1548120098000
1548120116390.6201171875,1,81.5100000000,A01A3A,5,1548120098000
1548120116406.2500000000,1,71.2200000000,A01A3A,5,1548120098000
1548120116421.8798828125,1,58.8700000000,A01A3A,5,1548120098000
1548120116437.5000000000,1,45.8200000000,A01A3A,5,1548120098000
1548120116453.1201171875,1,33.7900000000,A01A3A,5,1548120098000
1548120116468.7500000000,1,24.3200000000,A01A3A,5,1548120098000
1548120116484.3798828125,1,18.2500000000,A01A3A,5,1548120098000
1548120116500.0000000000,1,15.4900000000,A01A3A,5,1548120098000
1548120116515.6201171875,1,15.0300000000,A01A3A,5,1548120098000
1548120116531.2500000000,1,15.6000000000,A01A3A,5,1548120098000
1548120116546.8798828125,1,16.1800000000,A01A3A,5,1548120098000
1548120116562.5000000000,1,16.4700000000,A01A3A,5,1548120098000
1548120116578.1201171875,1,16.7700000000,A01A3A,5,1548120098000
1548120116593.7500000000,1,17.5400000000,A01A3A,5,1548120098000
1548120116609.3798828125,1,18.8200000000,A01A3A,5,1548120098000
1548120116625.0000000000,1,19.8800000000,A01A3A,5,1548120098000
1548120116640.6201171875,1,19.4200000000,A01A3A,5,1548120098000
1548120116656.2500000000,1,16.0900000000,A01A3A,5,1548120098000
1548120116671.8798828125,1,9.2800000000,A01A3A,5,1548120098000
1548120116687.5000000000,1,-0.4900000000,A01A3A,5,1548120098000
1548120116703.1201171875,1,-11.7000000000,A01A3A,5,1548120098000
1548120116718.7500000000,1,-22.4100000000,A01A3A,5,1548120098000
1548120116734.3798828125,1,-31.0500000000,A01A3A,5,1548120098000
1548120116750.0000000000,1,-37.0500000000,A01A3A,5,1548120098000
1548120116765.6201171875,1,-41.0900000000,A01A3A,5,1548120098000
1548120116781.2500000000,1,-44.7100000000,A01A3A,5,1548120098000
1548120116796.8798828125,1,-49.7200000000,A01A3A,5,1548120098000
1548120116812.5000000000,1,-57.5000000000,A01A3A,5,1548120098000
1548120116828.1201171875,1,-68.4400000000,A01A3A,5,1548120098000
1548120116843.7500000000,1,-81.5300000000,A01A3A,5,1548120098000
1548120116859.3798828125,1,-94.3300000000,A01A3A,5,1548120098000
1548120116875.0000000000,1,-103.3800000000,A01A3A,5,1548120098000
1548120116890.6201171875,1,-105.0200000000,A01A3A,5,1548120098000
1548120116906.2500000000,1,-96.5000000000,A01A3A,5,1548120098000
1548120116921.8798828125,1,-77.0800000000,A01A3A,5,1548120098000
1548120116937.5000000000,1,-48.5400000000,A01A3A,5,1548120098000
1548120116953.1201171875,1,-14.8800000000,A01A3A,5,1548120098000
1548120116968.7500000000,1,18.7800000000,A01A3A,5,1548120098000
1548120116984.3798828125,1,47.7700000000,A01A3A,5,1548120098000
1548120117000.0000000000,1,69.0700000000,A01A3A,5,1548120098000
1548120117015.6201171875,1,81.8300000000,A01A3A,5,1548120098000
1548120117031.2500000000,1,86.9700000000,A01A3A,5,1548120098000
1548120117046.8798828125,1,86.1700000000,A01A3A,5,1548120098000
1548120117062.5000000000,1,81.0100000000,A01A3A,5,1548120098000
1548120117078.1201171875,1,72.5000000000,A01A3A,5,1548120098000
1548120117093.7500000000,1,61.3000000000,A01A3A,5,1548120098000
1548120117109.3798828125,1,48.1400000000,A01A3A,5,1548120098000
1548120117125.0000000000,1,34.2800000000,A01A3A,5,1548120098000
1548120117140.6201171875,1,21.3900000000,A01A3A,5,1548120098000
1548120117156.2500000000,1,11.1800000000,A01A3A,5,1548120098000
1548120117171.8798828125,1,4.7100000000,A01A3A,5,1548120098000
1548120117187.5000000000,1,2.0800000000,A01A3A,5,1548120098000
1548120117203.1201171875,1,2.4200000000,A01A3A,5,1548120098000
1548120117218.7500000000,1,4.3500000000,A01A3A,5,1548120098000
1548120117234.3798828125,1,6.6500000000,A01A3A,5,1548120098000
1548120117250.0000000000,1,8.7400000000,A01A3A,5,1548120098000
1548120117265.6201171875,1,10.6800000000,A01A3A,5,1548120098000
1548120117281.2500000000,1,12.7800000000,A01A3A,5,1548120098000
1548120117296.8798828125,1,15.0500000000,A01A3A,5,1548120098000
1548120117312.5000000000,1,16.7200000000,A01A3A,5,1548120098000
1548120117328.1201171875,1,16.4000000000,A01A3A,5,1548120098000
1548120117343.7500000000,1,12.6200000000,A01A3A,5,1548120098000
1548120117359.3798828125,1,4.5800000000,A01A3A,5,1548120098000
1548120117375.0000000000,1,-7.3200000000,A01A3A,5,1548120098000
1548120117390.6201171875,1,-21.4100000000,A01A3A,5,1548120098000
1548120117406.2500000000,1,-35.3500000000,A01A3A,5,1548120098000
1548120117421.8798828125,1,-47.0800000000,A01A3A,5,1548120098000
1548120117437.5000000000,1,-55.4700000000,A01A3A,5,1548120098000
1548120117453.1201171875,1,-60.7800000000,A01A3A,5,1548120098000
1548120117468.7500000000,1,-64.4000000000,A01A3A,5,1548120098000
1548120117484.3798828125,1,-68.2600000000,A01A3A,5,1548120098000
1548120117500.0000000000,1,-74.1700000000,A01A3A,5,1548120098000
1548120117515.6201171875,1,-83.2600000000,A01A3A,5,1548120098000
1548120117531.2500000000,1,-95.5000000000,A01A3A,5,1548120098000
1548120117546.8798828125,1,-109.3600000000,A01A3A,5,1548120098000
1548120117562.5000000000,1,-121.8600000000,A01A3A,5,1548120098000
1548120117578.1201171875,1,-128.9600000000,A01A3A,5,1548120098000
1548120117593.7500000000,1,-126.6800000000,A01A3A,5,1548120098000
1548120117609.3798828125,1,-112.3800000000,A01A3A,5,1548120098000
1548120117625.0000000000,1,-86.0500000000,A01A3A,5,1548120098000
1548120117640.6201171875,1,-50.6600000000,A01A3A,5,1548120098000
1548120117656.2500000000,1,-11.4300000000,A01A3A,5,1548120098000
1548120117671.8798828125,1,25.7500000000,A01A3A,5,1548120098000
1548120117687.5000000000,1,56.1000000000,A01A3A,5,1548120098000
1548120117703.1201171875,1,77.2100000000,A01A3A,5,1548120098000
1548120117718.7500000000,1,89.1000000000,A01A3A,5,1548120098000
1548120117734.3798828125,1,93.4500000000,A01A3A,5,1548120098000
1548120117750.0000000000,1,92.3900000000,A01A3A,5,1548120098000
1548120117765.6201171875,1,87.6400000000,A01A3A,5,1548120098000
1548120117781.2500000000,1,80.1900000000,A01A3A,5,1548120098000
1548120117796.8798828125,1,70.6900000000,A01A3A,5,1548120098000
1548120117812.5000000000,1,59.8500000000,A01A3A,5,1548120098000
1548120117828.1201171875,1,48.7700000000,A01A3A,5,1548120098000
1548120117843.7500000000,1,38.7500000000,A01A3A,5,1548120098000
1548120117859.3798828125,1,30.9800000000,A01A3A,5,1548120098000
1548120117875.0000000000,1,26.0900000000,A01A3A,5,1548120098000
1548120117890.6201171875,1,24.0200000000,A01A3A,5,1548120098000
1548120117906.2500000000,1,24.1400000000,A01A3A,5,1548120098000
1548120117921.8798828125,1,25.5700000000,A01A3A,5,1548120098000
1548120117937.5000000000,1,27.5800000000,A01A3A,5,1548120098000
1548120117953.1201171875,1,29.7500000000,A01A3A,5,1548120098000
1548120117968.7500000000,1,31.8400000000,A01A3A,5,1548120098000
1548120117984.3798828125,1,33.4900000000,A01A3A,5,1548120098000
1548120118000.0000000000,1,33.9700000000,A01A3A,5,1548120098000
1548120118015.6201171875,1,32.2500000000,A01A3A,5,1548120098000
1548120118031.2500000000,1,27.2700000000,A01A3A,5,1548120098000
1548120118046.8798828125,1,18.5300000000,A01A3A,5,1548120098000
1548120118062.5000000000,1,6.4600000000,A01A3A,5,1548120098000
1548120118078.1201171875,1,-7.5600000000,A01A3A,5,1548120098000
1548120118093.7500000000,1,-21.5200000000,A01A3A,5,1548120098000
1548120118109.3798828125,1,-33.4900000000,A01A3A,5,1548120098000
1548120118125.0000000000,1,-42.2700000000,A01A3A,5,1548120098000
1548120118140.6201171875,1,-47.7700000000,A01A3A,5,1548120098000
1548120118156.2500000000,1,-51.0800000000,A01A3A,5,1548120098000
1548120118171.8798828125,1,-54.1400000000,A01A3A,5,1548120098000
1548120118187.5000000000,1,-59.1400000000,A01A3A,5,1548120098000
1548120118203.1201171875,1,-67.8500000000,A01A3A,5,1548120098000
1548120118218.7500000000,1,-80.9600000000,A01A3A,5,1548120098000
1548120118234.3798828125,1,-97.6000000000,A01A3A,5,1548120098000
1548120118250.0000000000,1,-115.1300000000,A01A3A,5,1548120098000
1548120118265.6201171875,1,-129.4400000000,A01A3A,5,1548120098000
1548120118281.2500000000,1,-135.8700000000,A01A3A,5,1548120098000
1548120118296.8798828125,1,-130.5200000000,A01A3A,5,1548120098000
1548120118312.5000000000,1,-111.7200000000,A01A3A,5,1548120098000
1548120118328.1201171875,1,-80.8600000000,A01A3A,5,1548120098000
1548120118343.7500000000,1,-42.2600000000,A01A3A,5,1548120098000
1548120118359.3798828125,1,-1.9400000000,A01A3A,5,1548120098000
1548120118375.0000000000,1,34.2500000000,A01A3A,5,1548120098000
1548120118390.6201171875,1,62.2300000000,A01A3A,5,1548120098000
1548120118406.2500000000,1,80.5900000000,A01A3A,5,1548120098000
1548120118421.8798828125,1,90.2000000000,A01A3A,5,1548120098000
1548120118437.5000000000,1,93.1700000000,A01A3A,5,1548120098000
1548120118453.1201171875,1,91.6200000000,A01A3A,5,1548120098000
1548120118468.7500000000,1,87.0400000000,A01A3A,5,1548120098000
1548120118484.3798828125,1,80.2200000000,A01A3A,5,1548120098000
1548120118500.0000000000,1,71.8000000000,A01A3A,5,1548120098000
1548120118515.6201171875,1,62.6500000000,A01A3A,5,1548120098000
1548120118531.2500000000,1,53.9900000000,A01A3A,5,1548120098000
1548120118546.8798828125,1,47.0600000000,A01A3A,5,1548120098000
1548120118562.5000000000,1,42.6000000000,A01A3A,5,1548120098000
1548120118578.1201171875,1,40.6200000000,A01A3A,5,1548120098000
1548120118593.7500000000,1,40.4800000000,A01A3A,5,1548120098000
1548120118609.3798828125,1,41.2300000000,A01A3A,5,1548120098000
1548120118625.0000000000,1,42.0700000000,A01A3A,5,1548120098000
1548120118640.6201171875,1,42.6000000000,A01A3A,5,1548120098000
1548120118656.2500000000,1,42.7700000000,A01A3A,5,1548120098000
1548120118671.8798828125,1,42.6100000000,A01A3A,5,1548120098000
1548120118687.5000000000,1,41.9600000000,A01A3A,5,1548120098000
1548120118703.1201171875,1,40.3000000000,A01A3A,5,1548120098000
1548120118718.7500000000,1,36.8700000000,A01A3A,5,1548120098000
1548120118734.3798828125,1,30.9100000000,A01A3A,5,1548120098000
1548120118750.0000000000,1,22.1000000000,A01A3A,5,1548120098000
1548120118765.6201171875,1,10.8400000000,A01A3A,5,1548120098000
1548120118781.2500000000,1,-1.7600000000,A01A3A,5,1548120098000
1548120118796.8798828125,1,-14.1500000000,A01A3A,5,1548120098000
1548120118812.5000000000,1,-24.8700000000,A01A3A,5,1548120098000
1548120118828.1201171875,1,-33.0900000000,A01A3A,5,1548120098000
1548120118843.7500000000,1,-38.9400000000,A01A3A,5,1548120098000
1548120118859.3798828125,1,-43.4800000000,A01A3A,5,1548120098000
1548120118875.0000000000,1,-48.3900000000,A01A3A,5,1548120098000
1548120118890.6201171875,1,-55.4000000000,A01A3A,5,1548120098000
1548120118906.2500000000,1,-65.6300000000,A01A3A,5,1548120098000
1548120118921.8798828125,1,-79.0500000000,A01A3A,5,1548120098000
1548120118937.5000000000,1,-93.9900000000,A01A3A,5,1548120098000
1548120118953.1201171875,1,-107.2500000000,A01A3A,5,1548120098000
1548120118968.7500000000,1,-114.6700000000,A01A3A,5,1548120098000
1548120118984.3798828125,1,-112.3000000000,A01A3A,5,1548120098000
1548120119000.0000000000,1,-97.8600000000,A01A3A,5,1548120098000
1548120119015.6201171875,1,-71.7600000000,A01A3A,5,1548120098000
1548120119031.2500000000,1,-37.3500000000,A01A3A,5,1548120098000
1548120119046.8798828125,1,0E-10,A01A3A,5,1548120098000
1548120119062.5000000000,1,34.5300000000,A01A3A,5,1548120098000
1548120119078.1201171875,1,61.8600000000,A01A3A,5,1548120098000
1548120119093.7500000000,1,80.0000000000,A01A3A,5,1548120098000
1548120119109.3798828125,1,89.3600000000,A01A3A,5,1548120098000
1548120119125.0000000000,1,91.7800000000,A01A3A,5,1548120098000
1548120119140.6201171875,1,89.3800000000,A01A3A,5,1548120098000
1548120119156.2500000000,1,83.6800000000,A01A3A,5,1548120098000
1548120119171.8798828125,1,75.4600000000,A01A3A,5,1548120098000
1548120119187.5000000000,1,65.1700000000,A01A3A,5,1548120098000
1548120119203.1201171875,1,53.4500000000,A01A3A,5,1548120098000
1548120119218.7500000000,1,41.4100000000,A01A3A,5,1548120098000
1548120119234.3798828125,1,30.5300000000,A01A3A,5,1548120098000
1548120119250.0000000000,1,22.1600000000,A01A3A,5,1548120098000
1548120119265.6201171875,1,17.2200000000,A01A3A,5,1548120098000
1548120119281.2500000000,1,15.8700000000,A01A3A,5,1548120098000
1548120119296.8798828125,1,17.5600000000,A01A3A,5,1548120098000
1548120119312.5000000000,1,21.2500000000,A01A3A,5,1548120098000
1548120119328.1201171875,1,25.7300000000,A01A3A,5,1548120098000
1548120119343.7500000000,1,29.8400000000,A01A3A,5,1548120098000
1548120119359.3798828125,1,32.6000000000,A01A3A,5,1548120098000
1548120119375.0000000000,1,33.3200000000,A01A3A,5,1548120098000
1548120119390.6201171875,1,31.5800000000,A01A3A,5,1548120098000
1548120119406.2500000000,1,27.2400000000,A01A3A,5,1548120098000
1548120119421.8798828125,1,20.4500000000,A01A3A,5,1548120098000
1548120119437.5000000000,1,11.6800000000,A01A3A,5,1548120098000
1548120119453.1201171875,1,1.6700000000,A01A3A,5,1548120098000
1548120119468.7500000000,1,-8.7200000000,A01A3A,5,1548120098000
1548120119484.3798828125,1,-18.6700000000,A01A3A,5,1548120098000
1548120119500.0000000000,1,-27.7400000000,A01A3A,5,1548120098000
1548120119515.6201171875,1,-36.0300000000,A01A3A,5,1548120098000
1548120119531.2500000000,1,-44.2300000000,A01A3A,5,1548120098000
1548120119546.8798828125,1,-53.4500000000,A01A3A,5,1548120098000
1548120119562.5000000000,1,-64.6400000000,A01A3A,5,1548120098000
1548120119578.1201171875,1,-77.8800000000,A01A3A,5,1548120098000
1548120119593.7500000000,1,-91.7700000000,A01A3A,5,1548120098000
1548120119609.3798828125,1,-103.3400000000,A01A3A,5,1548120098000
1548120119625.0000000000,1,-108.6100000000,A01A3A,5,1548120098000
1548120119640.6201171875,1,-103.8900000000,A01A3A,5,1548120098000
1548120119656.2500000000,1,-87.2900000000,A01A3A,5,1548120098000
1548120119671.8798828125,1,-59.6300000000,A01A3A,5,1548120098000
1548120119687.5000000000,1,-24.5800000000,A01A3A,5,1548120098000
1548120119703.1201171875,1,12.3700000000,A01A3A,5,1548120098000
1548120119718.7500000000,1,45.6000000000,A01A3A,5,1548120098000
1548120119734.3798828125,1,70.9600000000,A01A3A,5,1548120098000
1548120119750.0000000000,1,86.7100000000,A01A3A,5,1548120098000
1548120119765.6201171875,1,93.3800000000,A01A3A,5,1548120098000
1548120119781.2500000000,1,92.9400000000,A01A3A,5,1548120098000
1548120119796.8798828125,1,87.6600000000,A01A3A,5,1548120098000
1548120119812.5000000000,1,79.3600000000,A01A3A,5,1548120098000
1548120119828.1201171875,1,69.2000000000,A01A3A,5,1548120098000
1548120119843.7500000000,1,57.9400000000,A01A3A,5,1548120098000
1548120119859.3798828125,1,46.3000000000,A01A3A,5,1548120098000
1548120119875.0000000000,1,35.2000000000,A01A3A,5,1548120098000
1548120119890.6201171875,1,25.6300000000,A01A3A,5,1548120098000
1548120119906.2500000000,1,18.4800000000,A01A3A,5,1548120098000
1548120119921.8798828125,1,14.1600000000,A01A3A,5,1548120098000
1548120119937.5000000000,1,12.6300000000,A01A3A,5,1548120098000
1548120119953.1201171875,1,13.4400000000,A01A3A,5,1548120098000
1548120119968.7500000000,1,15.9500000000,A01A3A,5,1548120098000
1548120119984.3798828125,1,19.4200000000,A01A3A,5,1548120098000
1548120120000.0000000000,1,23.0800000000,A01A3A,5,1548120098000
1548120120015.6201171875,1,25.9800000000,A01A3A,5,1548120098000
1548120120031.2500000000,1,27.0300000000,A01A3A,5,1548120098000
1548120120046.8798828125,1,25.0700000000,A01A3A,5,1548120098000
1548120120062.5000000000,1,19.2500000000,A01A3A,5,1548120098000
1548120120078.1201171875,1,9.4000000000,A01A3A,5,1548120098000
1548120120093.7500000000,1,-3.6600000000,A01A3A,5,1548120098000
1548120120109.3798828125,1,-18.2000000000,A01A3A,5,1548120098000
1548120120125.0000000000,1,-32.0600000000,A01A3A,5,1548120098000
1548120120140.6201171875,1,-43.3400000000,A01A3A,5,1548120098000
1548120120156.2500000000,1,-51.0800000000,A01A3A,5,1548120098000
1548120120171.8798828125,1,-55.7000000000,A01A3A,5,1548120098000
1548120120187.5000000000,1,-58.8600000000,A01A3A,5,1548120098000
1548120120203.1201171875,1,-62.9200000000,A01A3A,5,1548120098000
1548120120218.7500000000,1,-70.0000000000,A01A3A,5,1548120098000
1548120120234.3798828125,1,-80.9900000000,A01A3A,5,1548120098000
1548120120250.0000000000,1,-94.8000000000,A01A3A,5,1548120098000
1548120120265.6201171875,1,-108.3100000000,A01A3A,5,1548120098000
1548120120281.2500000000,1,-117.0400000000,A01A3A,5,1548120098000
1548120120296.8798828125,1,-116.5800000000,A01A3A,5,1548120098000
1548120120312.5000000000,1,-104.1300000000,A01A3A,5,1548120098000
1548120120328.1201171875,1,-79.6900000000,A01A3A,5,1548120098000
1548120120343.7500000000,1,-46.2800000000,A01A3A,5,1548120098000
1548120120359.3798828125,1,-9.0600000000,A01A3A,5,1548120098000
1548120120375.0000000000,1,26.3500000000,A01A3A,5,1548120098000
1548120120390.6201171875,1,55.4300000000,A01A3A,5,1548120098000
1548120120406.2500000000,1,75.8900000000,A01A3A,5,1548120098000
1548120120421.8798828125,1,87.6500000000,A01A3A,5,1548120098000
1548120120437.5000000000,1,92.1600000000,A01A3A,5,1548120098000
1548120120453.1201171875,1,91.3900000000,A01A3A,5,1548120098000
1548120120468.7500000000,1,87.1200000000,A01A3A,5,1548120098000
1548120120484.3798828125,1,80.5800000000,A01A3A,5,1548120098000
1548120120500.0000000000,1,72.6500000000,A01A3A,5,1548120098000
1548120120515.6201171875,1,64.0600000000,A01A3A,5,1548120098000
1548120120531.2500000000,1,55.5800000000,A01A3A,5,1548120098000
1548120120546.8798828125,1,47.9500000000,A01A3A,5,1548120098000
1548120120562.5000000000,1,41.7200000000,A01A3A,5,1548120098000
1548120120578.1201171875,1,37.2000000000,A01A3A,5,1548120098000
1548120120593.7500000000,1,34.3800000000,A01A3A,5,1548120098000
1548120120609.3798828125,1,33.0500000000,A01A3A,5,1548120098000
1548120120625.0000000000,1,32.8700000000,A01A3A,5,1548120098000
1548120120640.6201171875,1,33.5000000000,A01A3A,5,1548120098000
1548120120656.2500000000,1,34.5400000000,A01A3A,5,1548120098000
1548120120671.8798828125,1,35.5300000000,A01A3A,5,1548120098000
1548120120687.5000000000,1,35.8300000000,A01A3A,5,1548120098000
1548120120703.1201171875,1,34.6800000000,A01A3A,5,1548120098000
1548120120718.7500000000,1,31.3000000000,A01A3A,5,1548120098000
1548120120734.3798828125,1,25.0800000000,A01A3A,5,1548120098000
1548120120750.0000000000,1,15.9600000000,A01A3A,5,1548120098000
1548120120765.6201171875,1,4.5100000000,A01A3A,5,1548120098000
1548120120781.2500000000,1,-8.0700000000,A01A3A,5,1548120098000
1548120120796.8798828125,1,-20.3200000000,A01A3A,5,1548120098000
1548120120812.5000000000,1,-31.0000000000,A01A3A,5,1548120098000
1548120120828.1201171875,1,-39.5300000000,A01A3A,5,1548120098000
1548120120843.7500000000,1,-46.2700000000,A01A3A,5,1548120098000
1548120120859.3798828125,1,-52.4400000000,A01A3A,5,1548120098000
1548120120875.0000000000,1,-59.7100000000,A01A3A,5,1548120098000
1548120120890.6201171875,1,-69.5400000000,A01A3A,5,1548120098000
1548120120906.2500000000,1,-82.3400000000,A01A3A,5,1548120098000
1548120120921.8798828125,1,-96.8400000000,A01A3A,5,1548120098000
1548120120937.5000000000,1,-109.9700000000,A01A3A,5,1548120098000
1548120120953.1201171875,1,-117.4800000000,A01A3A,5,1548120098000
1548120120968.7500000000,1,-115.2100000000,A01A3A,5,1548120098000
1548120120984.3798828125,1,-100.7000000000,A01A3A,5,1548120098000
1548120121000.0000000000,1,-74.3600000000,A01A3A,5,1548120098000
1548120121015.6201171875,1,-39.7000000000,A01A3A,5,1548120098000
1548120121031.2500000000,1,-2.2700000000,A01A3A,5,1548120098000
1548120121046.8798828125,1,32.0600000000,A01A3A,5,1548120098000
1548120121062.5000000000,1,58.9200000000,A01A3A,5,1548120098000
1548120121078.1201171875,1,76.5000000000,A01A3A,5,1548120098000
1548120121093.7500000000,1,85.4400000000,A01A3A,5,1548120098000
1548120121109.3798828125,1,87.8000000000,A01A3A,5,1548120098000
1548120121125.0000000000,1,85.8400000000,A01A3A,5,1548120098000
1548120121140.6201171875,1,81.1700000000,A01A3A,5,1548120098000
1548120121156.2500000000,1,74.5800000000,A01A3A,5,1548120098000
1548120121171.8798828125,1,66.4700000000,A01A3A,5,1548120098000
1548120121187.5000000000,1,57.3900000000,A01A3A,5,1548120098000
1548120121203.1201171875,1,48.3000000000,A01A3A,5,1548120098000
1548120121218.7500000000,1,40.4300000000,A01A3A,5,1548120098000
1548120121234.3798828125,1,34.8500000000,A01A3A,5,1548120098000
1548120121250.0000000000,1,32.0300000000,A01A3A,5,1548120098000
1548120121265.6201171875,1,31.7800000000,A01A3A,5,1548120098000
1548120121281.2500000000,1,33.3400000000,A01A3A,5,1548120098000
1548120121296.8798828125,1,35.8700000000,A01A3A,5,1548120098000
1548120121312.5000000000,1,38.6700000000,A01A3A,5,1548120098000
1548120121328.1201171875,1,41.3200000000,A01A3A,5,1548120098000
1548120121343.7500000000,1,43.5100000000,A01A3A,5,1548120098000
1548120121359.3798828125,1,44.7700000000,A01A3A,5,1548120098000
1548120121375.0000000000,1,44.3700000000,A01A3A,5,1548120098000
1548120121390.6201171875,1,41.4400000000,A01A3A,5,1548120098000
1548120121406.2500000000,1,35.3700000000,A01A3A,5,1548120098000
1548120121421.8798828125,1,26.1700000000,A01A3A,5,1548120098000
1548120121437.5000000000,1,14.6700000000,A01A3A,5,1548120098000
1548120121453.1201171875,1,2.3200000000,A01A3A,5,1548120098000
1548120121468.7500000000,1,-9.2600000000,A01A3A,5,1548120098000
1548120121484.3798828125,1,-18.8700000000,A01A3A,5,1548120098000
1548120121500.0000000000,1,-26.2000000000,A01A3A,5,1548120098000
1548120121515.6201171875,1,-31.8700000000,A01A3A,5,1548120098000
1548120121531.2500000000,1,-37.2800000000,A01A3A,5,1548120098000
1548120121546.8798828125,1,-44.1200000000,A01A3A,5,1548120098000
1548120121562.5000000000,1,-53.6800000000,A01A3A,5,1548120098000
1548120121578.1201171875,1,-66.3200000000,A01A3A,5,1548120098000
1548120121593.7500000000,1,-80.8800000000,A01A3A,5,1548120098000
1548120121609.3798828125,1,-94.6800000000,A01A3A,5,1548120098000
1548120121625.0000000000,1,-103.9600000000,A01A3A,5,1548120098000
1548120121640.6201171875,1,-104.8600000000,A01A3A,5,1548120098000
1548120121656.2500000000,1,-94.8200000000,A01A3A,5,1548120098000
1548120121671.8798828125,1,-73.6200000000,A01A3A,5,1548120098000
1548120121687.5000000000,1,-43.8200000000,A01A3A,5,1548120098000
1548120121703.1201171875,1,-10.1100000000,A01A3A,5,1548120098000
1548120121718.7500000000,1,22.1500000000,A01A3A,5,1548120098000
1548120121734.3798828125,1,48.5200000000,A01A3A,5,1548120098000
1548120121750.0000000000,1,66.6700000000,A01A3A,5,1548120098000
1548120121765.6201171875,1,76.5700000000,A01A3A,5,1548120098000
1548120121781.2500000000,1,79.8000000000,A01A3A,5,1548120098000
1548120121796.8798828125,1,78.4900000000,A01A3A,5,1548120098000
1548120121812.5000000000,1,74.2800000000,A01A3A,5,1548120098000
1548120121828.1201171875,1,68.0900000000,A01A3A,5,1548120098000
1548120121843.7500000000,1,60.3300000000,A01A3A,5,1548120098000
1548120121859.3798828125,1,51.4500000000,A01A3A,5,1548120098000
1548120121875.0000000000,1,42.3400000000,A01A3A,5,1548120098000
1548120121890.6201171875,1,34.2600000000,A01A3A,5,1548120098000
1548120121906.2500000000,1,28.4300000000,A01A3A,5,1548120098000
1548120121921.8798828125,1,25.5400000000,A01A3A,5,1548120098000
1548120121937.5000000000,1,25.5300000000,A01A3A,5,1548120098000
1548120121953.1201171875,1,27.6200000000,A01A3A,5,1548120098000
1548120121968.7500000000,1,30.8100000000,A01A3A,5,1548120098000
1548120121984.3798828125,1,34.1700000000,A01A3A,5,1548120098000
1548120122000.0000000000,1,37.1500000000,A01A3A,5,1548120098000
1548120122015.6201171875,1,39.4300000000,A01A3A,5,1548120098000
1548120122031.2500000000,1,40.6900000000,A01A3A,5,1548120098000
1548120122046.8798828125,1,40.4300000000,A01A3A,5,1548120098000
1548120122062.5000000000,1,37.9500000000,A01A3A,5,1548120098000
1548120122078.1201171875,1,32.6600000000,A01A3A,5,1548120098000
1548120122093.7500000000,1,24.4100000000,A01A3A,5,1548120098000
1548120122109.3798828125,1,13.7100000000,A01A3A,5,1548120098000
1548120122125.0000000000,1,1.7100000000,A01A3A,5,1548120098000
1548120122140.6201171875,1,-10.1000000000,A01A3A,5,1548120098000
1548120122156.2500000000,1,-20.4700000000,A01A3A,5,1548120098000
1548120122171.8798828125,1,-28.7300000000,A01A3A,5,1548120098000
1548120122187.5000000000,1,-35.1500000000,A01A3A,5,1548120098000
1548120122203.1201171875,1,-40.8400000000,A01A3A,5,1548120098000
1548120122218.7500000000,1,-47.4000000000,A01A3A,5,1548120098000
1548120122234.3798828125,1,-56.2300000000,A01A3A,5,1548120098000
1548120122250.0000000000,1,-67.8300000000,A01A3A,5,1548120098000
1548120122265.6201171875,1,-81.2000000000,A01A3A,5,1548120098000
1548120122281.2500000000,1,-93.6400000000,A01A3A,5,1548120098000
1548120122296.8798828125,1,-101.2800000000,A01A3A,5,1548120098000
1548120122312.5000000000,1,-100.3100000000,A01A3A,5,1548120098000
1548120122328.1201171875,1,-88.3700000000,A01A3A,5,1548120098000
1548120122343.7500000000,1,-65.7000000000,A01A3A,5,1548120098000
1548120122359.3798828125,1,-35.3800000000,A01A3A,5,1548120098000
1548120122375.0000000000,1,-2.4100000000,A01A3A,5,1548120098000
1548120122390.6201171875,1,27.9200000000,A01A3A,5,1548120098000
1548120122406.2500000000,1,51.7100000000,A01A3A,5,1548120098000
1548120122421.8798828125,1,67.4400000000,A01A3A,5,1548120098000
1548120122437.5000000000,1,75.8200000000,A01A3A,5,1548120098000
1548120122453.1201171875,1,78.7700000000,A01A3A,5,1548120098000
1548120122468.7500000000,1,78.2000000000,A01A3A,5,1548120098000
1548120122484.3798828125,1,75.1900000000,A01A3A,5,1548120098000
1548120122500.0000000000,1,69.9800000000,A01A3A,5,1548120098000
1548120122515.6201171875,1,62.5800000000,A01A3A,5,1548120098000
1548120122531.2500000000,1,53.4300000000,A01A3A,5,1548120098000
1548120122546.8798828125,1,43.7700000000,A01A3A,5,1548120098000
1548120122562.5000000000,1,35.2800000000,A01A3A,5,1548120098000
1548120122578.1201171875,1,29.4600000000,A01A3A,5,1548120098000
1548120122593.7500000000,1,27.0000000000,A01A3A,5,1548120098000
1548120122609.3798828125,1,27.4700000000,A01A3A,5,1548120098000
1548120122625.0000000000,1,29.6000000000,A01A3A,5,1548120098000
1548120122640.6201171875,1,31.8600000000,A01A3A,5,1548120098000
1548120122656.2500000000,1,33.1300000000,A01A3A,5,1548120098000
1548120122671.8798828125,1,33.0300000000,A01A3A,5,1548120098000
1548120122687.5000000000,1,31.9200000000,A01A3A,5,1548120098000
1548120122703.1201171875,1,30.4000000000,A01A3A,5,1548120098000
1548120122718.7500000000,1,28.8300000000,A01A3A,5,1548120098000
1548120122734.3798828125,1,26.9000000000,A01A3A,5,1548120098000
1548120122750.0000000000,1,23.6900000000,A01A3A,5,1548120098000
1548120122765.6201171875,1,18.1100000000,A01A3A,5,1548120098000
1548120122781.2500000000,1,9.5100000000,A01A3A,5,1548120098000
1548120122796.8798828125,1,-1.9000000000,A01A3A,5,1548120098000
1548120122812.5000000000,1,-14.9700000000,A01A3A,5,1548120098000
1548120122828.1201171875,1,-27.9400000000,A01A3A,5,1548120098000
1548120122843.7500000000,1,-39.1200000000,A01A3A,5,1548120098000
1548120122859.3798828125,1,-47.4600000000,A01A3A,5,1548120098000
1548120122875.0000000000,1,-52.9000000000,A01A3A,5,1548120098000
1548120122890.6201171875,1,-56.3900000000,A01A3A,5,1548120098000
1548120122906.2500000000,1,-59.5700000000,A01A3A,5,1548120098000
1548120122921.8798828125,1,-64.2100000000,A01A3A,5,1548120098000
1548120122937.5000000000,1,-71.7100000000,A01A3A,5,1548120098000
1548120122953.1201171875,1,-82.5300000000,A01A3A,5,1548120098000
1548120122968.7500000000,1,-95.7800000000,A01A3A,5,1548120098000
1548120122984.3798828125,1,-109.1000000000,A01A3A,5,1548120098000
1548120123000.0000000000,1,-118.9600000000,A01A3A,5,1548120098000
1548120123015.6201171875,1,-121.5700000000,A01A3A,5,1548120098000
1548120123031.2500000000,1,-114.0000000000,A01A3A,5,1548120098000
1548120123046.8798828125,1,-95.4000000000,A01A3A,5,1548120098000
1548120123062.5000000000,1,-67.4900000000,A01A3A,5,1548120098000
1548120123078.1201171875,1,-34.2100000000,A01A3A,5,1548120098000
1548120123093.7500000000,1,-0.6300000000,A01A3A,5,1548120098000
1548120123109.3798828125,1,28.6700000000,A01A3A,5,1548120098000
1548120123125.0000000000,1,50.7300000000,A01A3A,5,1548120098000
1548120123140.6201171875,1,64.8300000000,A01A3A,5,1548120098000
1548120123156.2500000000,1,72.0500000000,A01A3A,5,1548120098000
1548120123171.8798828125,1,74.4000000000,A01A3A,5,1548120098000
1548120123187.5000000000,1,73.7900000000,A01A3A,5,1548120098000
1548120123203.1201171875,1,71.4100000000,A01A3A,5,1548120098000
1548120123218.7500000000,1,67.6800000000,A01A3A,5,1548120098000
1548120123234.3798828125,1,62.6700000000,A01A3A,5,1548120098000
1548120123250.0000000000,1,56.5800000000,A01A3A,5,1548120098000
1548120123265.6201171875,1,50.0500000000,A01A3A,5,1548120098000
1548120123281.2500000000,1,44.1400000000,A01A3A,5,1548120098000
1548120123296.8798828125,1,39.9500000000,A01A3A,5,1548120098000
1548120123312.5000000000,1,38.1600000000,A01A3A,5,1548120098000
1548120123328.1201171875,1,38.7300000000,A01A3A,5,1548120098000
1548120123343.7500000000,1,40.8700000000,A01A3A,5,1548120098000
1548120123359.3798828125,1,43.4100000000,A01A3A,5,1548120098000
1548120123375.0000000000,1,45.2300000000,A01A3A,5,1548120098000
1548120123390.6201171875,1,45.7200000000,A01A3A,5,1548120098000
1548120123406.2500000000,1,44.8600000000,A01A3A,5,1548120098000
1548120123421.8798828125,1,43.1100000000,A01A3A,5,1548120098000
1548120123437.5000000000,1,41.0000000000,A01A3A,5,1548120098000
1548120123453.1201171875,1,38.6900000000,A01A3A,5,1548120098000
1548120123468.7500000000,1,35.8700000000,A01A3A,5,1548120098000
1548120123484.3798828125,1,31.8200000000,A01A3A,5,1548120098000
1548120123500.0000000000,1,25.8100000000,A01A3A,5,1548120098000
1548120123515.6201171875,1,17.5600000000,A01A3A,5,1548120098000
1548120123531.2500000000,1,7.4700000000,A01A3A,5,1548120098000
1548120123546.8798828125,1,-3.3300000000,A01A3A,5,1548120098000
1548120123562.5000000000,1,-13.4100000000,A01A3A,5,1548120098000
1548120123578.1201171875,1,-21.5600000000,A01A3A,5,1548120098000
1548120123593.7500000000,1,-27.2600000000,A01A3A,5,1548120098000
1548120123609.3798828125,1,-30.8600000000,A01A3A,5,1548120098000
1548120123625.0000000000,1,-33.4500000000,A01A3A,5,1548120098000
1548120123640.6201171875,1,-36.4900000000,A01A3A,5,1548120098000
1548120123656.2500000000,1,-41.2800000000,A01A3A,5,1548120098000
1548120123671.8798828125,1,-48.6600000000,A01A3A,5,1548120098000
1548120123687.5000000000,1,-58.7600000000,A01A3A,5,1548120098000
1548120123703.1201171875,1,-70.8700000000,A01A3A,5,1548120098000
1548120123718.7500000000,1,-83.3200000000,A01A3A,5,1548120098000
1548120123734.3798828125,1,-93.5700000000,A01A3A,5,1548120098000
1548120123750.0000000000,1,-98.5700000000,A01A3A,5,1548120098000
1548120123765.6201171875,1,-95.5300000000,A01A3A,5,1548120098000
1548120123781.2500000000,1,-82.9200000000,A01A3A,5,1548120098000
1548120123796.8798828125,1,-61.2300000000,A01A3A,5,1548120098000
1548120123812.5000000000,1,-33.2100000000,A01A3A,5,1548120098000
1548120123828.1201171875,1,-3.1500000000,A01A3A,5,1548120098000
1548120123843.7500000000,1,24.3200000000,A01A3A,5,1548120098000
1548120123859.3798828125,1,45.7300000000,A01A3A,5,1548120098000
1548120123875.0000000000,1,59.5300000000,A01A3A,5,1548120098000
1548120123890.6201171875,1,66.2200000000,A01A3A,5,1548120098000
1548120123906.2500000000,1,67.5200000000,A01A3A,5,1548120098000
1548120123921.8798828125,1,65.4300000000,A01A3A,5,1548120098000
1548120123937.5000000000,1,61.4000000000,A01A3A,5,1548120098000
1548120123953.1201171875,1,56.1200000000,A01A3A,5,1548120098000
1548120123968.7500000000,1,49.8000000000,A01A3A,5,1548120098000
1548120123984.3798828125,1,42.6800000000,A01A3A,5,1548120098000
1548120124000.0000000000,1,35.3900000000,A01A3A,5,1548120098000
1548120124015.6201171875,1,28.9800000000,A01A3A,5,1548120098000
1548120124031.2500000000,1,24.5100000000,A01A3A,5,1548120098000
1548120124046.8798828125,1,22.6400000000,A01A3A,5,1548120098000
1548120124062.5000000000,1,23.2000000000,A01A3A,5,1548120098000
1548120124078.1201171875,1,25.3000000000,A01A3A,5,1548120098000
1548120124093.7500000000,1,27.6600000000,A01A3A,5,1548120098000
1548120124109.3798828125,1,29.2200000000,A01A3A,5,1548120098000
1548120124125.0000000000,1,29.5400000000,A01A3A,5,1548120098000
1548120124140.6201171875,1,28.9000000000,A01A3A,5,1548120098000
1548120124156.2500000000,1,27.9500000000,A01A3A,5,1548120098000
1548120124171.8798828125,1,27.2300000000,A01A3A,5,1548120098000
1548120124187.5000000000,1,26.6500000000,A01A3A,5,1548120098000
1548120124203.1201171875,1,25.4800000000,A01A3A,5,1548120098000
1548120124218.7500000000,1,22.6700000000,A01A3A,5,1548120098000
1548120124234.3798828125,1,17.4300000000,A01A3A,5,1548120098000
1548120124250.0000000000,1,9.6800000000,A01A3A,5,1548120098000
1548120124265.6201171875,1,0.2200000000,A01A3A,5,1548120098000
1548120124281.2500000000,1,-9.5500000000,A01A3A,5,1548120098000
1548120124296.8798828125,1,-18.1900000000,A01A3A,5,1548120098000
1548120124312.5000000000,1,-24.7300000000,A01A3A,5,1548120098000
1548120124328.1201171875,1,-29.0000000000,A01A3A,5,1548120098000
1548120124343.7500000000,1,-31.6700000000,A01A3A,5,1548120098000
1548120124359.3798828125,1,-33.9000000000,A01A3A,5,1548120098000
1548120124375.0000000000,1,-36.9900000000,A01A3A,5,1548120098000
1548120124390.6201171875,1,-41.9800000000,A01A3A,5,1548120098000
1548120124406.2500000000,1,-49.3900000000,A01A3A,5,1548120098000
1548120124421.8798828125,1,-58.9900000000,A01A3A,5,1548120098000
1548120124437.5000000000,1,-69.7000000000,A01A3A,5,1548120098000
1548120124453.1201171875,1,-79.5400000000,A01A3A,5,1548120098000
1548120124468.7500000000,1,-85.9400000000,A01A3A,5,1548120098000
1548120124484.3798828125,1,-86.3200000000,A01A3A,5,1548120098000
1548120124500.0000000000,1,-78.8300000000,A01A3A,5,1548120098000
1548120124515.6201171875,1,-63.1800000000,A01A3A,5,1548120098000
1548120124531.2500000000,1,-40.9400000000,A01A3A,5,1548120098000
1548120124546.8798828125,1,-15.2200000000,A01A3A,5,1548120098000
1548120124562.5000000000,1,10.1500000000,A01A3A,5,1548120098000
1548120124578.1201171875,1,31.7900000000,A01A3A,5,1548120098000
1548120124593.7500000000,1,47.5700000000,A01A3A,5,1548120098000
1548120124609.3798828125,1,56.9900000000,A01A3A,5,1548120098000
1548120124625.0000000000,1,60.7600000000,A01A3A,5,1548120098000
1548120124640.6201171875,1,60.1400000000,A01A3A,5,1548120098000
1548120124656.2500000000,1,56.3100000000,A01A3A,5,1548120098000
1548120124671.8798828125,1,50.0300000000,A01A3A,5,1548120098000
1548120124687.5000000000,1,41.8700000000,A01A3A,5,1548120098000
1548120124703.1201171875,1,32.4900000000,A01A3A,5,1548120098000
1548120124718.7500000000,1,22.9400000000,A01A3A,5,1548120098000
1548120124734.3798828125,1,14.5600000000,A01A3A,5,1548120098000
1548120124750.0000000000,1,8.6100000000,A01A3A,5,1548120098000
1548120124765.6201171875,1,5.8300000000,A01A3A,5,1548120098000
1548120124781.2500000000,1,6.1000000000,A01A3A,5,1548120098000
1548120124796.8798828125,1,8.5300000000,A01A3A,5,1548120098000
1548120124812.5000000000,1,11.8300000000,A01A3A,5,1548120098000
1548120124828.1201171875,1,14.9000000000,A01A3A,5,1548120098000
1548120124843.7500000000,1,17.1700000000,A01A3A,5,1548120098000
1548120124859.3798828125,1,18.6300000000,A01A3A,5,1548120098000
1548120124875.0000000000,1,19.5600000000,A01A3A,5,1548120098000
1548120124890.6201171875,1,20.0300000000,A01A3A,5,1548120098000
1548120124906.2500000000,1,19.6500000000,A01A3A,5,1548120098000
1548120124921.8798828125,1,17.6500000000,A01A3A,5,1548120098000
1548120124937.5000000000,1,13.2400000000,A01A3A,5,1548120098000
1548120124953.1201171875,1,6.1800000000,A01A3A,5,1548120098000
1548120124968.7500000000,1,-3.0000000000,A01A3A,5,1548120098000
1548120124984.3798828125,1,-13.0200000000,A01A3A,5,1548120098000
1548120125000.0000000000,1,-22.3400000000,A01A3A,5,1548120098000
1548120125015.6201171875,1,-29.7900000000,A01A3A,5,1548120098000
1548120125031.2500000000,1,-34.9600000000,A01A3A,5,1548120098000
1548120125046.8798828125,1,-38.3900000000,A01A3A,5,1548120098000
1548120125062.5000000000,1,-41.2600000000,A01A3A,5,1548120098000
1548120125078.1201171875,1,-45.0100000000,A01A3A,5,1548120098000
1548120125093.7500000000,1,-50.8100000000,A01A3A,5,1548120098000
1548120125109.3798828125,1,-59.1300000000,A01A3A,5,1548120098000
1548120125125.0000000000,1,-69.4500000000,A01A3A,5,1548120098000
1548120125140.6201171875,1,-80.1400000000,A01A3A,5,1548120098000
1548120125156.2500000000,1,-88.5500000000,A01A3A,5,1548120098000
1548120125171.8798828125,1,-91.6500000000,A01A3A,5,1548120098000
1548120125187.5000000000,1,-86.8300000000,A01A3A,5,1548120098000
1548120125203.1201171875,1,-72.9600000000,A01A3A,5,1548120098000
1548120125218.7500000000,1,-50.9900000000,A01A3A,5,1548120098000
1548120125234.3798828125,1,-23.9600000000,A01A3A,5,1548120098000
1548120125250.0000000000,1,3.8700000000,A01A3A,5,1548120098000
1548120125265.6201171875,1,28.3100000000,A01A3A,5,1548120098000
1548120125281.2500000000,1,46.4700000000,A01A3A,5,1548120098000
1548120125296.8798828125,1,57.4400000000,A01A3A,5,1548120098000
1548120125312.5000000000,1,62.0300000000,A01A3A,5,1548120098000
1548120125328.1201171875,1,62.0200000000,A01A3A,5,1548120098000
1548120125343.7500000000,1,59.2100000000,A01A3A,5,1548120098000
1548120125359.3798828125,1,54.7100000000,A01A3A,5,1548120098000
1548120125375.0000000000,1,48.9100000000,A01A3A,5,1548120098000
1548120125390.6201171875,1,41.8900000000,A01A3A,5,1548120098000
1548120125406.2500000000,1,33.8400000000,A01A3A,5,1548120098000
1548120125421.8798828125,1,25.5400000000,A01A3A,5,1548120098000
1548120125437.5000000000,1,18.1500000000,A01A3A,5,1548120098000
1548120125453.1201171875,1,12.9400000000,A01A3A,5,1548120098000
1548120125468.7500000000,1,10.6300000000,A01A3A,5,1548120098000
1548120125484.3798828125,1,11.1400000000,A01A3A,5,1548120098000
1548120125500.0000000000,1,13.5800000000,A01A3A,5,1548120098000
1548120125515.6201171875,1,16.6300000000,A01A3A,5,1548120098000
1548120125531.2500000000,1,19.1600000000,A01A3A,5,1548120098000
1548120125546.8798828125,1,20.5800000000,A01A3A,5,1548120098000
1548120125562.5000000000,1,20.9300000000,A01A3A,5,1548120098000
1548120125578.1201171875,1,20.5700000000,A01A3A,5,1548120098000
1548120125593.7500000000,1,19.7700000000,A01A3A,5,1548120098000
1548120125609.3798828125,1,18.3000000000,A01A3A,5,1548120098000
1548120125625.0000000000,1,15.5100000000,A01A3A,5,1548120098000
1548120125640.6201171875,1,10.6100000000,A01A3A,5,1548120098000
1548120125656.2500000000,1,3.1400000000,A01A3A,5,1548120098000
1548120125671.8798828125,1,-6.6900000000,A01A3A,5,1548120098000
1548120125687.5000000000,1,-17.8700000000,A01A3A,5,1548120098000
1548120125703.1201171875,1,-28.9600000000,A01A3A,5,1548120098000
1548120125718.7500000000,1,-38.5800000000,A01A3A,5,1548120098000
1548120125734.3798828125,1,-45.9200000000,A01A3A,5,1548120098000
1548120125750.0000000000,1,-50.9900000000,A01A3A,5,1548120098000
1548120125765.6201171875,1,-54.6000000000,A01A3A,5,1548120098000
1548120125781.2500000000,1,-58.0000000000,A01A3A,5,1548120098000
1548120125796.8798828125,1,-62.4400000000,A01A3A,5,1548120098000
1548120125812.5000000000,1,-68.7800000000,A01A3A,5,1548120098000
1548120125828.1201171875,1,-77.1900000000,A01A3A,5,1548120098000
1548120125843.7500000000,1,-87.0300000000,A01A3A,5,1548120098000
1548120125859.3798828125,1,-96.6800000000,A01A3A,5,1548120098000
1548120125875.0000000000,1,-103.7000000000,A01A3A,5,1548120098000
1548120125890.6201171875,1,-105.2300000000,A01A3A,5,1548120098000
1548120125906.2500000000,1,-98.7800000000,A01A3A,5,1548120098000
1548120125921.8798828125,1,-83.2100000000,A01A3A,5,1548120098000
1548120125937.5000000000,1,-59.4500000000,A01A3A,5,1548120098000
1548120125953.1201171875,1,-30.5700000000,A01A3A,5,1548120098000
1548120125968.7500000000,1,-0.9300000000,A01A3A,5,1548120098000
1548120125984.3798828125,1,25.1500000000,A01A3A,5,1548120098000
1548120126000.0000000000,1,44.7300000000,A01A3A,5,1548120098000
1548120126015.6201171875,1,56.9700000000,A01A3A,5,1548120098000
1548120126031.2500000000,1,62.8300000000,A01A3A,5,1548120098000
1548120126046.8798828125,1,64.2200000000,A01A3A,5,1548120098000
1548120126062.5000000000,1,62.8900000000,A01A3A,5,1548120098000
1548120126078.1201171875,1,59.8300000000,A01A3A,5,1548120098000
1548120126093.7500000000,1,55.2700000000,A01A3A,5,1548120098000
1548120126109.3798828125,1,49.2200000000,A01A3A,5,1548120098000
1548120126125.0000000000,1,41.9700000000,A01A3A,5,1548120098000
1548120126140.6201171875,1,34.3400000000,A01A3A,5,1548120098000
1548120126156.2500000000,1,27.5200000000,A01A3A,5,1548120098000
1548120126171.8798828125,1,22.6300000000,A01A3A,5,1548120098000
1548120126187.5000000000,1,20.2200000000,A01A3A,5,1548120098000
1548120126203.1201171875,1,20.1300000000,A01A3A,5,1548120098000
1548120126218.7500000000,1,21.5200000000,A01A3A,5,1548120098000
1548120126234.3798828125,1,23.3600000000,A01A3A,5,1548120098000
1548120126250.0000000000,1,24.7600000000,A01A3A,5,1548120098000
1548120126265.6201171875,1,25.3700000000,A01A3A,5,1548120098000
1548120126281.2500000000,1,25.3300000000,A01A3A,5,1548120098000
1548120126296.8798828125,1,25.0400000000,A01A3A,5,1548120098000
1548120126312.5000000000,1,24.7200000000,A01A3A,5,1548120098000
1548120126328.1201171875,1,24.1500000000,A01A3A,5,1548120098000
1548120126343.7500000000,1,22.6000000000,A01A3A,5,1548120098000
1548120126359.3798828125,1,19.1800000000,A01A3A,5,1548120098000
1548120126375.0000000000,1,13.2100000000,A01A3A,5,1548120098000
1548120126390.6201171875,1,4.7000000000,A01A3A,5,1548120098000
1548120126406.2500000000,1,-5.5800000000,A01A3A,5,1548120098000
1548120126421.8798828125,1,-16.2900000000,A01A3A,5,1548120098000
1548120126437.5000000000,1,-26.0500000000,A01A3A,5,1548120098000
1548120126453.1201171875,1,-33.8500000000,A01A3A,5,1548120098000
1548120126468.7500000000,1,-39.4300000000,A01A3A,5,1548120098000
1548120126484.3798828125,1,-43.2400000000,A01A3A,5,1548120098000
1548120126500.0000000000,1,-46.3000000000,A01A3A,5,1548120098000
1548120126515.6201171875,1,-49.8800000000,A01A3A,5,1548120098000
1548120126531.2500000000,1,-55.1400000000,A01A3A,5,1548120098000
1548120126546.8798828125,1,-62.8200000000,A01A3A,5,1548120098000
1548120126562.5000000000,1,-72.9000000000,A01A3A,5,1548120098000
1548120126578.1201171875,1,-84.2500000000,A01A3A,5,1548120098000
1548120126593.7500000000,1,-94.5900000000,A01A3A,5,1548120098000
1548120126609.3798828125,1,-100.7700000000,A01A3A,5,1548120098000
1548120126625.0000000000,1,-99.7100000000,A01A3A,5,1548120098000
1548120126640.6201171875,1,-89.4100000000,A01A3A,5,1548120098000
1548120126656.2500000000,1,-69.9200000000,A01A3A,5,1548120098000
1548120126671.8798828125,1,-43.5300000000,A01A3A,5,1548120098000
1548120126687.5000000000,1,-14.2000000000,A01A3A,5,1548120098000
1548120126703.1201171875,1,13.6700000000,A01A3A,5,1548120098000
1548120126718.7500000000,1,36.6000000000,A01A3A,5,1548120098000
1548120126734.3798828125,1,52.8100000000,A01A3A,5,1548120098000
1548120126750.0000000000,1,62.2700000000,A01A3A,5,1548120098000
1548120126765.6201171875,1,66.1500000000,A01A3A,5,1548120098000
1548120126781.2500000000,1,66.0200000000,A01A3A,5,1548120098000
1548120126796.8798828125,1,63.2200000000,A01A3A,5,1548120098000
1548120126812.5000000000,1,58.6700000000,A01A3A,5,1548120098000
1548120126828.1201171875,1,52.9600000000,A01A3A,5,1548120098000
1548120126843.7500000000,1,46.6600000000,A01A3A,5,1548120098000
1548120126859.3798828125,1,40.4600000000,A01A3A,5,1548120098000
1548120126875.0000000000,1,35.1100000000,A01A3A,5,1548120098000
1548120126890.6201171875,1,31.3000000000,A01A3A,5,1548120098000
1548120126906.2500000000,1,29.4100000000,A01A3A,5,1548120098000
1548120126921.8798828125,1,29.3500000000,A01A3A,5,1548120098000
1548120126937.5000000000,1,30.5500000000,A01A3A,5,1548120098000
1548120126953.1201171875,1,32.2300000000,A01A3A,5,1548120098000
1548120126968.7500000000,1,33.6600000000,A01A3A,5,1548120098000
1548120126984.3798828125,1,34.4500000000,A01A3A,5,1548120098000
1548120127000.0000000000,1,34.7000000000,A01A3A,5,1548120098000
1548120127015.6201171875,1,34.7400000000,A01A3A,5,1548120098000
1548120127031.2500000000,1,34.7600000000,A01A3A,5,1548120098000
1548120127046.8798828125,1,34.5000000000,A01A3A,5,1548120098000
1548120127062.5000000000,1,33.1600000000,A01A3A,5,1548120098000
1548120127078.1201171875,1,29.6800000000,A01A3A,5,1548120098000
1548120127093.7500000000,1,23.3600000000,A01A3A,5,1548120098000
1548120127109.3798828125,1,14.2500000000,A01A3A,5,1548120098000
1548120127125.0000000000,1,3.3800000000,A01A3A,5,1548120098000
