reading_id,reading_time,wire_id,result_classification,heart_rate,heart_rate_alert,firmware_version,device_app_version,hardware_version,waveform_samples
c2dbd0a0-7047-11f0-8080-808080808080,Sun Aug 03 08:56:36 UTC 2025,89b8641d482c,UNCLASSIFIABLE,104,NONE,128.6.21,2.9,Sense,[32767  32767  32767  32767  32767  32767  32767  32767  32767  32767  32767  32767  32767  32767  32767  32767  32767  32767  32767  32767  32767  32767  32767  32767  32767  32767  32767  32767  32767  32767  32767  32767  32767  32767  32767  32767  32767  32767  32767  32767  32767  23271  -32768  -32768  -32768  -32768  -32768  -32768  -32768  -32768  -32768  -32768  -32768  -32768  -32768  -32768  -32768  -32768  -32768  -32768  -32768  -32768  -32768  -32768  -32768  -32768  -32768  -32768  -32768  -32768  -32768  -32768  -32768  -32768  -32768  -32768  -32768  -32768  -32768  -32768  -32768  -32768  -32768  -32768  -32768  -32768  -32768  -32768  -32768  -32768  -32768  -32768  -32768  -32768  -32768  -32768  -32768  -32768  -32768  -32768  -32768  -32768  -32768  -32768  -32768  -32768  -32768  -32768  -32768  -32768  -32768  -32768  -32768  -32768  -32768  -32768  -32768  -32768  -32768  -32768  -32768  -32768  -32768  -32768  -32768  -32768  -32768  -32768  -32768  -32768  -32768  -32768  -32768  -32655  -31270  -29923  -28608  -27304  -25981  -24644  -23324  -22028  -20737  -19450  -18196  -17001  -15850  -14702  -13564  -12470  -11415  -10347  -9232  -8108  -7066  -6135  -5232  -4267  -3260  -2298  -1441  -640  264  1344  2377  3046  3301  3357  3407  3499  3624  3785  3985  4204  4426  4656  4895  5105  5240  5300  5327  5359  5414  5506  5665  5899  6168  6394  6501  6469  6326  6104  5844  5650  5686  6099  7037  8693  11180  14228  17024  18768  19385  19103  17686  14936  11582  8823  7252  6693  6676  6854  7142  7570  8108  8643  9048  9273  9352  9356  9363  9416  9498  9567  9639  9773  9998  10250  10432  10534  10609  10682  10741  10791  10888  11092  11388  11670  11829  11847  11786  11718  11670  11643  11644  11670  11706  11759  11835  11928  12009  12059  12076  12043  11965  11892  11846  11813  11771  11689  11532  11339  11202  11133  11050  10902  10737  10633  10604  10610  10617  10616  10604  10578  10531  10453  10307  10068  9799  9615  9554  9555  9572  9624  9745  9906  10025  10070  10072  10061  10026  9912  9697  9434  9207  9073  9060  9149  9280  9331  9147  8737  8334  8110  8024  7978  7947  7942  7953  7949  7884  7726  7489  7225  6994  6846  6823  6940  7175  7410  7467  7336  7177  7083  7008  6859  6609  6336  6145  6069  6074  6121  6181  6215  6154  5954  5679  5451  5301  5191  5109  5069  5155  5641  6918  9222  12330  15366  17273  17640  16572  14184  10760  7088  4233  2780  2449  2616  2888  3130  3288  3349  3340  3288  3210  3127  3060  3017  3000  2993  2960  2897  2821  2769  2817  2966  3106  3180  3227  3277  3294  3232  3114  3047  3101  3212  3296  3347  3382  3398  3390  3355  3283  3172  3031  2900  2818  2780  2745  2691  2637  2600  2584  2570  2497  2289  1985  1739  1638  1635  1645  1604  1481  1300  1128  1027  1007  1041  1103  1167  1193  1087  764  312  -43  -194  -185  -65  126  305  384  351  255  155  89  66  77  136  298  550  768  873  906  908  830  608  304  74  -27  -62  -89  -122  -153  -169  -154  -106  -29  68  147  160  99  3  -59  -24  131  339  494  554  545  505  440  270  -88  -546  -876  -984  -951  -869  -791  -753  -777  -857  -986  -1158  -1348  -1479  -1392  -956  -172  994  2788  5323  7998  9829  10419  9874  8073  5013  1595  -885  -1990  -2247  -2261  -2235  -2170  -2099  -2070  -2085  -2116  -2132  -2085  -1948  -1771  -1653  -1615  -1578  -1467  -1309  -1187  -1104  -982  -811  -668  -617  -665  -785  -921  -1056  -1206  -1327  -1356  -1310  -1246  -1195  -1134  -1010  -790  -507  -241  -60  23  55  112  218  278  175  -48  -247  -365  -449  -557  -710  -877  -1011  -1086  -1122  -1173  -1271  -1395  -1501  -1579  -1636  -1664  -1668  -1669  -1679  -1681  -1623  -1474  -1312  -1270  -1365  -1479  -1537  -1551  -1559  -1559  -1500  -1333  -1119  -980  -954  -985  -1035  -1101  -1185  -1266  -1323  -1339  -1291  -1219  -1165  -1083  -956  -858  -823  -805  -748  -628  -481  -360  -285  -244  -215  -171  -107  -33  35  80  52  -98  -325  -525  -666  -749  -750  -672  -566  -496  -469  -431  -349  -296  -402  -707  -1124  -1575  -2027  -2276  -1851  -358  2190  5363  8565  11169  12462  11991  9824  6431  2688  -394  -2188  -2694  -2425  -1949  -1584  -1358  -1156  -968  -838  -703  -530  -412  -415  -480  -527  -539  -537  -536  -540  -549  -561  -550  -431  -129  269  564  667  640  572  522  494  460  415  383  384  412  426  393  337  311  352  442  527  574  599  631  683  732  697  521  270  70  -64  -216  -399  -539  -593  -602  -634  -716  -814  -892  -927  -894  -823  -760  -695  -632  -601  -601  -597  -563  -503  -446  -416  -411  -427  -464  -531  -616  -686  -722  -712  -638  -515  -384  -242  -55  153  305  363  341  247  91  -83  -232  -322  -345  -296  -168  3  154  264  356  430  478  485  415  251  14  -268  -528  -691  -763  -795  -814  -826  -842  -869  -923  -1046  -1240  -1428  -1567  -1720  -1920  -2096  -2041  -1397  124  2613  5886  9383  12180  13245  12093  9116  5186  1344  -1442  -2794  -3001  -2517  -1764  -1204  -1042  -1123  -1254  -1340  -1342  -1269  -1169  -1101  -1080  -1075  -1053  -1006  -924  -781  -600  -461  -414  -432  -467  -494  -519  -553  -571  -522  -371  -111  229  585  823  798  557  320  184  79  -24  -43  107  439  825  1056  1042  875  695  590  565  559  481  236  -181  -594  -798  -828  -842  -861  -815  -691  -551  -470  -453  -464  -516  -650  -846  -1020  -1111  -1112  -1018  -836  -631  -514  -548  -706  -881  -960  -927  -861  -823  -813  -815  -821  -827  -820  -789  -735  -673  -618  -566  -509  -458  -422  -411  -436  -484  -530  -556  -529  -455  -388  -356  -328  -285  -266  -320  -438  -536  -537  -458  -386  -381  -433  -512  -609  -712  -773  -781  -795  -883  -1107  -1511  -1999  -2264  -1951  -739  1561  4779  8357  11412  12925  12342  9870  6268  2523  -436  -2114  -2635  -2429  -1943  -1574  -1441  -1389  -1291  -1158  -1058  -1016  -1014  -1056  -1164  -1311  -1415  -1405  -1269  -1065  -875  -769  -788  -904  -1009  -1022  -938  -807  -682  -553  -375  -161  35  203  368  545  682  670  516  304  67  -130  -201  -163  -94  -50  -40  -27  17  89  154  192  211  226  233  187  35  -197  -421  -582  -696  -773  -816  -851  -919  -1019  -1116  -1203  -1282  -1338  -1360  -1368  -1380  -1387  -1333  -1163  -922  -727  -634  -605  -598  -598  -598  -596  -595  -606  -640  -686  -720  -731  -729  -731  -741  -752  -742  -679  -542  -373  -249  -200  -188  -165  -91  25  146  260  378  457  427  269  50  -114  -168  -140  -89  -43  4  49  65  13  -126  -303  -459  -689  -1172  -1825  -2238  -1993  -789  1520  4732  8216  11111  12628  12259  10029  6645  3095  211  -1583  -2354  -2451  -2232  -1921  -1645  -1484  -1410  -1367  -1338  -1300  -1252  -1221  -1212  -1212  -1210  -1196  -1166  -1120  -1051  -935  -781  -662  -634  -676  -728  -758  -762  -714  -583  -407  -272  -214  -191  -155  -96  -14  85  175  252  347  462  557  593  522  305  15  -195  -250  -193  -102  -39  -57  -192  -417  -635  -765  -811  -815  -787  -690  -501  -335  -380  -621  -857  -985  -1062  -1125  -1131  -1075  -1019  -1005  -1019  -1007  -889  -616  -266  -8  71  -5  -197  -423  -577  -637  -666  -715  -740  -613  -284  87  323  413  432  430  429  439  456  466  464  458  461  469  458  387  228  28  -120  -216  -327  -462  -568  -616  -627  -628  -632  -642  -654  -661  -656  -632  -634  -828  -1276  -1632  -1327  80  2686  6048  9312  11594  12310  11296  8776  5368  1854  -1079  -2868  -3318  -2765  -1879  -1277  -1135  -1235  -1346  -1429  -1520  -1560  -1445  -1195  -954  -837  -832  -863  -875  -832  -722  -591  -505  -475  -437  -330  -174  -57  -44  -130  -256  -338  -319  -207  -58  98  252  333  303  227  175  151  137  140  205  360  522  557  463  331  199  74  4  31  131  202  131  -131  -483  -736  -822  -812  -789  -787  -814  -856  -886  -885  -846  -764  -628  -466  -358  -339  -372  -420  -456  -456  -412  -346  -303  -329  -440  -585  -698  -763  -797  -793  -714  -545  -346  -208  -162  -161  -161  -150  -137  -121  -92  -42  40  152  241  234  95  -130  -327  -419  -431  -432  -468  -536  -611  -678  -733  -772  -780  -720  -562  -330  -109  -36  -284  -895  -1643  -2068  -1629  21  2858  6442  9916  12234  12626  10965  7751  3896  492  -1719  -2730  -2968  -2821  -2544  -2341  -2271  -2231  -2117  -1917  -1683  -1459  -1257  -1098  -1042  -1127  -1296  -1451  -1559  -1626  -1642  -1570  -1351  -966  -530  -243  -167  -201  -244  -264  -265  -258  -244  -214  -165  -83  58  234  352  343  224  74  -47  -100  -5  222  420  472  400  284  183  95  1  -87  -179  -299  -434  -549  -611  -563  -396  -198  -57  5  20  42  100  167  202  171  34  -174  -338  -402  -411  -406  -371  -261  -100  -13  -65  -144  -145  -85  -22  -7  -53  -115  -153  -164  -173  -212  -277  -316  -292  -243  -225  -258  -315  -345  -292  -154  -8  101  202  269  229  78  -116  -294  -453  -592  -691  -760  -832  -931  -1042  -1121  -1146  -1142  -1134  -1132  -1136  -1196  -1458  -1920  -2237  -2021  -1079  692  3338  6687  10111  12602  13218  11535  8016  3882  452  -1595  -2381  -2365  -2080  -1974  -2072  -2116  -1988  -1757  -1540  -1386  -1262  -1128  -971  -780  -579  -459  -458  -525  -615  -704  -775  -831  -868  -844  -693  -444  -213  -54  70  172  207  158  62  -29  -83  -95  -82  -31  107  335  563  716  782  794  814  843  779  541  208  -36  -115  -94  -61  -77  -201  -446  -732  -978  -1175  -1328  -1396  -1350  -1226  -1099  -1013  -971  -946  -913  -863  -804  -759  -738  -732  -731  -740  -782  -871  -997  -1102  -1127  -1072  -977  -839  -645  -459  -381  -414  -475  -502  -500  -495  -515  -566  -622  -657  -643  -548  -409  -317  -292  -288  -273  -251  -216  -121  72  305  472  534  482  290  5  -246  -401  -514  -626  -706  -706  -625  -508  -393  -285  -217  -237  -378  -721  -1308  -1931  -2170  -1614  10  2689  5963  9188  11745  12917  12137  9451  5576  1574  -1489  -2865  -2630  -1700  -987  -783  -903  -1070  -1157  -1174  -1153  -1114  -1076  -1044  -1009  -979  -973  -999  -1039  -1064  -1050  -993  -912  -814  -699  -609  -574  -557  -503  -410  -326  -294  -320  -351  -340  -289  -232  -211  -244  -289  -290  -240  -191  -185  -203  -192  -144  -111  -143  -231  -333  -414  -452  -449  -438  -468  -576  -732  -864  -949  -1021  -1086  -1135  -1185  -1234  -1241  -1163  -989  -759  -559  -469  -501  -617  -778  -939  -1024  -943  -692  -368  -110  -13  -79  -236  -419  -589  -706  -729  -651  -508  -362  -274  -271  -335  -432  -534  -594  -535  -344  -74  211  416  479  445  389  342  286  194  89  19  0  6  20  27  9  -50  -130  -180  -182  -162  -154  -186  -257  -336  -396  -426  -426  -395  -347  -383  -710  -1384  -2060  -2199  -1323  867  4219  8041  11327  13100  12851  10756  7462  3733  310  -2198  -3630  -4161  -3884  -2986  -2072  -1658  -1654  -1672  -1513  -1248  -1049  -978  -962  -939  -918  -896  -831  -727  -609  -474  -357  -309  -315  -341  -364  -360  -293  -137  82  259  273  144  4  -59  -42  18  68  81  70  70  125  242  374  502  619  621  439  168  -56  -170  -192  -191  -223  -292  -379  -462  -494  -435  -314  -210  -174  -191  -222  -275  -387  -537  -648  -688  -685  -674  -668  -672  -698  -750  -816  -865  -871  -839  -745  -541  -249  28  184  200  150  98  47  -27  -145  -303  -464  -578  -615  -563  -415  -232  -113  -84  -97  -109  -115  -123  -138  -153  -162  -167  -182  -225  -296  -369  -417  -433  -435  -411  -337  -252  -217  -236  -273  -296  -297  -289  -306  -390  -545  -698  -789  -938  -1318  -1754  -1666  -561  1608  4640  8064  10959  12468  12262  10440  7425  3893  632  -1698  -2824  -2890  -2356  -1764  -1439  -1377  -1398  -1404  -1408  -1421  -1433  -1442  -1448  -1444  -1398  -1259  -1041  -843  -741  -695  -619  -497  -377  -287  -223  -174  -106  3  103  105  8  -90  -105  -3  187  387  519  574  590  596  604  621  646  677  707  727  714  643  538  445  309  37  -295  -486  -482  -386  -307  -326  -445  -581  -663  -691  -694  -713  -775  -863  -922  -919  -874  -826  -790  -751  -698  -627  -545  -473  -427  -407  -401  -399  -396  -393  -393  -400  -397  -354  -241  -65  86  120  50  -52  -150  -195  -170  -104  -27  30  46  32  14  4  7  -3  -65  -195  -361  -463  -422  -277  -119  -39  -158  -474  -809  -1035  -1152  -1187  -1152  -1051  -888  -695  -553  -580  -897  -1497  -2153  -2534  -2355  -1414  282  2456  4808  7207  9376  10753  10786  9206  6229  2603  -682  -2886  -3777  -3599  -2919  -2212  -1690  -1451  -1440  -1516  -1606  -1663  -1651  -1579  -1459  -1283  -1071  -913  -872  -919  -978  -988  -934  -843  -745  -670  -630  -608  -584  -560  -544  -518  -449  -313  -139  -1  73  145  287  480  632  703  722  706  649  573  517  480  423  367  427  637  838  822  526  105  -201  -320  -364  -422  -493  -553  -580  -557  -504  -445  -377  -304  -239  -187  -154  -146  -151  -163  -189  -253  -368  -498  -580  -595  -577  -555  -542  -535  -516  -443  -291  -107  17  54  44  28  21  20  22  23  27  34  37  14  -63  -213  -394  -541  -631  -663  -621  -517  -391  -243  -66  95  183  167  49  -135  -324  -464  -554  -640  -775  -964  -1151  -1263  -1289  -1261  -1196  -1125  -1197  -1595  -2113  -2130  -1211  702  3486  6721  9653  11566  12025  10846  8263  5002  1866  -629  -2285  -3019  -2917  -2424  -1917  -1470  -1158  -1048  -1060  -1091  -1102  -1092  -1067  -1037  -1009  -994  -986  -952  -860  -738  -657  -644  -664  -686  -694  -692  -690  -679  -628  -506  -339  -193  -78  61  246  416  510  534  522  477  394  316  317  394  469  498  505  517  530  524  483  397  278  141  -28  -265  -557  -839  -1037  -1118  -1113  -1075  -1040  -1019  -1012  -988  -919  -821  -749  -725  -731  -744  -745  -712  -637  -547  -470  -430  -467  -575  -676  -718  -719  -703  -675  -614  -503  -378  -322  -385  -518  -632  -679  -672  -633  -580  -527  -484  -454  -431  -420  -458  -580  -712  -707  -536  -314  -152  -74  -69  -129  -262  -464  -680  -820  -863  -860  -862  -875  -878  -862  -830  -781  -702  -601  -536  -659  -1128  -1770  -2019  -1452  -33  2182  5085  8259  11028  12612  12322  10054  6492  2642  -591  -2653  -3525  -3521  -3047  -2471  -2005  -1736  -1647  -1641  -1632  -1589  -1530  -1480  -1394  -1198  -939  -765  -738  -789  -828  -825  -805  -788  -757  -691  -609  -563  -581  -637  -684  -694  -674  -613  -471  -223  81  349  543  701  835  890  809  627  447  335  293  306  363  441  506  539  509  370  135  -110  -282  -344  -301  -218  -168  -161  -175  -175  -132  -55  -19  -79  -205  -338  -447  -526  -550  -455  -258  -88  -17  -10  -19  -35  -80  -167  -258  -289  -247  -180  -131  -108  -100  -98  -115  -163  -207  -194  -149  -138  -167  -205  -254  -333  -428  -498  -528  -533  -508  -428  -291  -152  -91  -131  -206  -249  -229  -129  46  249  391  397  300  192  63  -171  -467  -661  -697  -640  -552  -466  -389  -300  -253  -445  -1008  -1726  -2090  -1607  -70  2474  5777  9191  11821  12901  12009  9325  5645  2024  -659  -2036  -2321  -2077  -1717  -1376  -1174  -1179  -1314  -1468  -1563  -1555  -1444  -1281  -1126  -994  -884  -812  -748  -623  -421  -215  -109  -168  -340  -500  -578  -596  -608  -646  -693  -663  -470  -151  158  373  476  477  406  316  256  237  230  211  185  161  142  136  147  171  208  235  199  64  -123  -271  -346  -382  -412  -460  -546  -650  -722  -722  -652  -554  -486  -473  -495  -521  -540  -559  -587  -621  -655  -696  -764  -841  -889  -892  -864  -826  -795  -761  -720  -698  -703  -686  -629  -565  -514  -467  -437  -460  -544  -640  -673  -612  -530  -501  -511  -541  -603  -681  -748  -790  -790  -721  -569  -392  -273  -219  -161  -48  110  269  366  348  197  -50  -329  -605  -854  -1009  -1017  -922  -830  -801  -829  -888  -963  -1053  -1165  -1296  -1474  -1787  -2099  -1909  -801  1310  4254  7532  10386  12112  12291  10729  7561  3590  1  -2336  -3195  -2931  -2251  -1808  -1752  -1768  -1640  -1452  -1310  -1208  -1095  -972  -891  -870  -869  -818  -696  -588  -591  -629  -574  -461  -375  -318  -265  -226  -213  -228  -274  -369  -512  -631  -621  -483  -329  -245  -220  -212  -221  -294  -459  -604  -547  -281  -2  129  123  71  22  -51  -203  -412  -587  -680  -714  -721  -711  -697  -730  -812  -862  -852  -854  -928  -1066  -1220  -1352  -1407  -1317  -1076  -789  -596  -536  -549  -578  -604  -612  -592  -556  -519  -478  -435  -401  -368  -334  -303  -286  -286  -297  -302  -267  -168  -46  24  25  -9  -54  -89  -95  -64  -7  45  65  56  38  30  19  -10  -44  -45  4  83  151  193  218  201  106  -13  -90  -143  -217  -314  -409  -492  -559  -603  -611  -574  -544  -592  -714  -941  -1402  -2030  -2334  -1655  376  3521  6954  9805  11569  11961  10811  8286  5000  1734  -787  -2077  -2242  -1894  -1575  -1448  -1374  -1220  -1043  -944  -926  -942  -963  -976  -957  -880  -753  -627  -530  -439  -332  -249  -248  -309  -367  -372  -280  -117  9  53  77  151  262  349  392  423  455  463  411  296  182  168  256  366  447  492  498  475  442  420  415  427  440  425  332  155  -59  -313  -676  -1102  -1404  -1504  -1489  -1420  -1249  -925  -576  -428  -508  -667  -800  -876  -863  -753  -593  -465  -429  -477  -545  -592  -642  -684  -642  -459  -199  -9  35  -31  -143  -246  -315  -346  -352  -350  -351  -345  -313  -243  -164  -149  -237  -369  -433  -399  -360  -393  -464  -486  -448  -426  -480  -555  -589  -588  -573  -552  -529  -515  -514  -508  -480  -470  -545  -695  -830  -903  -947  -1011  -1089  -1158  -1266  -1505  -1754  -1532  -310  2057  5221  8432  10821  11709  10818  8391  5060  1633  -1164  -2929  -3624  -3483  -2872  -2210  -1803  -1652  -1569  -1443  -1294  -1163  -1058  -974  -918  -890  -880  -878  -875  -868  -862  -851  -822  -782  -737  -685  -639  -632  -666  -717  -754  -774  -788  -791  -744  -587  -298  46  312  455  523  555  563  562  568  582  593  580  526  441  349  260  168  52  -115  -322  -501  -608  -657  -675  -670  -653  -641  -639  -641  -633  -609  -572  -537  -503  -470  -450  -458  -494  -541  -573  -557  -466  -348  -290  -302  -325  -333  -339  -365  -399  -394  -345  -309  -310  -309  -294  -281  -266  -234  -198  -197  -242  -282  -243  -129  -17  44  74  109  153  179  156  95  59  81  110  99  69  51  48  55  69  79  43  -88  -314  -560  -728  -760  -691  -596  -543  -602  -762  -921  -1037  -1203  -1422  -1383  -673  930  3475  6746  10081  12494  13179  11881  8960  5311  1896  -673  -2163  -2669  -2502  -2071  -1733  -1595  -1541  -1413  -1177  -952  -825  -727  -542  -276  -63  -28  -181  -408  -608  -757  -822  -778  -678  -593  -550  -541  -542  -535  -526  -515  -473  -354  -177  -28  30  31  64  192  375  511  554  544  532  537  543  502  356  105  -173  -369  -440  -473  -541  -596  -595  -577  -574  -584  -593  -595  -592  -586  -575  -553  -536  -577  -739  -1008  -1276  -1413  -1339  -1101  -844  -665  -580  -592  -717  -944  -1181  -1326  -1362  -1338  -1291  -1237  -1186  -1129  -1062  -995  -925  -840  -764  -746  -751  -708  -631  -571  -541  -527  -524  -537  -572  -620  -653  -649  -608  -555  -517  -487  -417  -269  -80  48  43  -99  -306  -493  -654  -811  -941  -1018  -1051  -1064  -1056  -991  -848  -710  -752  -1050  -1468  -1799  -1969  -1950  -1500  -263  1948  4976  8273  11076  12584  12219  10014  6590  2871  -262  -2278  -3064  -2954  -2477  -1996  -1711  -1661  -1700  -1680  -1570  -1403  -1263  -1232  -1273  -1288  -1249  -1169  -1035  -850  -665  -543  -501  -493  -461  -401  -335  -251  -143  -15  116  238  369  538  740  949  1131  1242  1250  1151  973  771  630  645  899  1383  1940  2361  2509  2307  1753  1033  466  244  327  559  790  934  960  835  539  138  -217  -421  -509  -590  -703  -805  -860  -882  -903  -944  -984  -958  -810  -593  -436  -407  -470  -552  -618  -668  -674  -612  -499  -365  -229  -120  -65  -57  -66  -87  -143  -243  -350  -448  -555  -649  -690  -690  -695  -732  -801  -855  -838  -732  -541  -300  -106  -4  75  201  358  479  525  483  308  -35  -446  -730  -817  -780  -690  -575  -453  -343  -265  -258  -383  -668  -1016  -1305  -1585  -1936  -2194  -2004  -963  1205  4337  7794  10700  12226  11916  9848  6604  3053  -22  -2099  -3018  -3003  -2506  -1974  -1654  -1561  -1571  -1589  -1589  -1530  -1390  -1205  -1017  -863  -776  -733  -674  -588  -512  -461  -428  -408  -402  -401  -394  -372  -336  -305  -276  -229  -162  -86  4  135  306  448  506  503  485  474  469  470  484  515  545  551  537  514  481  442  385  262  42  -214  -392  -440  -401  -339  -299  -299  -337  -406  -516  -657  -775  -837  -858  -867  -887  -915  -943  -963  -981  -1004  -1023  -1015  -970  -909  -868  -852  -829  -779  -720  -664  -605  -555  -528  -499  -430  -310  -177  -108  -167  -320  -469  -561  -606  -632  -666  -704  -726  -735  -736  -709  -633  -525  -423  -322  -176  -10  78  60  -49  -264  -540  -784  -950  -1049  -1138  -1262  -1372  -1346  -1140  -838  -584  -486  -546  -702  -922  -1238  -1684  -2174  -2429  -2058  -713  1703  4947  8444  11378  12895  12483  10219  6736  3063  161  -1589  -2287  -2293  -2080  -1879  -1722  -1648  -1629  -1599  -1544  -1485  -1442  -1397  -1307  -1181  -1072  -1000  -953  -929  -917  -871  -768  -648  -545  -443  -337  -249  -190  -143  -84  -21  5  -40  -181  -364  -460  -375  -127  185  449  595  635  620  564  459  366  381  500  598  554  357  107  -66  -140  -209  -368  -597  -797  -908  -934  -900  -833  -746  -640  -534  -471  -492  -615  -790  -927  -965  -876  -651  -364  -150  -80  -122  -204  -270  -301  -309  -300  -278  -260  -267  -303  -349  -410  -506  -588  -597  -552  -506  -485  -479  -446  -364  -262  -166  -27  179  331  253  -39  -329  -426  -316  -128  63  285  484  571  553  490  417  331  190  -31  -265  -408  -433  -394  -361  -364  -383  -398  -415  -434  -498  -780  -1318  -1696  -1360  63  2766  6413  9937  12139  12395  10721  7600  3927  649  -1647  -2757  -2853  -2365  -1766  -1384  -1240  -1201  -1194  -1187  -1154  -1079  -961  -827  -713  -640  -601  -586  -594  -625  -671  -693  -642  -506  -350  -234  -191  -239  -277  -154  98  328  452  483  470  452  445  462  518  624  796  1003  1128  1089  920  713  528  364  220  107  10  -69  -106  -89  -41  -3  -17  -108  -259  -427  -585  -721  -797  -774  -674  -537  -400  -324  -334  -398  -486  -555  -544  -426  -257  -135  -117  -189  -299  -392  -439  -450  -447  -461  -514  -596  -664  -668  -597  -498  -402  -302  -219  -187  -190  -195  -191  -208  -321  -585  -926  -1168  -1218  -1114  -949  -801  -702  -629  -541  -434  -350  -311  -294  -288  -332  -478  -710  -910  -995  -1007  -1007  -1012  -1052  -1143  -1232  -1265  -1229  -1147  -1153  -1426  -1872  -2011  -1281  659  3701  7201  10180  11739  11455  9442  6285  2816  -226  -2325  -3331  -3458  -3058  -2555  -2263  -2189  -2187  -2183  -2169  -2125  -2032  -1920  -1837  -1766  -1632  -1406  -1160  -983  -909  -922  -998  -1097  -1161  -1134  -1015  -867  -724  -559  -383  -249  -173  -143  -137  -128  -101  -68  -37  -3  31  55  68  74  76  88  113  139  162  194  245  306  343  331  274  153  -59  -323  -550  -698  -776  -813  -833  -829  -788  -722  -660  -641  -679  -724  -714  -634  -514  -402  -349  -374  -457  -579  -731  -850  -847  -704  -499  -351  -299  -304  -332  -378  -434  -469  -455  -400  -339  -284  -212  -119  -30  41  104  135  105  30  -54  -121  -105  38  276  512  662  714  720  719  705  656  581  499  404  272  113  -28  -121  -167  -179  -175  -182  -208  -208  -177  -293  -816  -1630  -2125  -1790  -522  1581  4285  7253  10078  12222  13029  11967  9156  5461  1936  -643  -1983  -2250  -1900  -1429  -1146  -1130  -1266  -1382  -1414  -1400  -1383  -1373  -1336  -1230  -1071  -923  -832  -799  -744  -608  -479  -453  -508  -596  -661  -654  -569  -454  -373  -347  -349  -359  -375  -403  -437  -440  -336  -45  404  802  905  710  431  226  114  57  15  -25  -43  -17  33  69  77  92  111  45  -126  -304  -436  -563  -701  -806  -856  -869  -874  -892  -933  -996  -1040  -1014  -920  -822  -767  -742  -717  -694  -700  -754  -837  -902  -905  -829  -703  -578  -478  -397  -346  -351  -402  -455  -484  -498  -515  -537  -552  -557  -568  -600  -643  -672  -682  -697  -742  -816  -906  -959  -880  -635  -310  -24  145  196  159  18  -271  -649  -951  -1083  -1097  -1081  -1083  -1111  -1149  -1151  -1085  -987  -927  -942  -1060  -1358  -1827  -2175  -1905  -559  1963  5276  8740  11581  12972  12413  9997  6369  2512  -629  -2543  -3231  -3013  -2423  -1923  -1637  -1528  -1546  -1604  -1650  -1672  -1653  -1576  -1457  -1345  -1266  -1201  -1118  -1006  -852  -672  -549  -534  -577  -614  -627  -625  -617  -611  -605  -590  -558  -526  -513  -508  -451  -304  -142  -74  -78  -59  -9  28  51  73  94  96  46  -76  -246  -397  -475  -473  -422  -371  -344  -343  -377  -463  -585  -694  -758  -782  -786  -787  -790  -772  -709  -606  -497  -401  -315  -256  -262  -335  -423  -470  -454  -402  -340  -266  -205  -221  -347  -531  -655  -613  -394  -118  64  115  73  -25  -139  -231  -280  -282  -251  -208  -169  -136  -74  54  221  344  388  388  380  364  325  274  291  441  644  783  846  841  759  630  491  363  253  157  52  -44  -75  -21  63  116  114  60  -65  -312  -694  -1151  -1525  -1528  -793  975  3828  7371  10833  13373  14204  12903  9761  5589  1373  -1821  -3234  -3113  -2393  -1660  -1159  -1020  -1077  -1105  -1084  -1062  -1047  -1026  -978  -885  -728  -533  -408  -433  -543  -638  -689  -709  -713  -717  -728  -723  -652  -483  -284  -173  -176  -235  -313  -386  -423  -390  -270  -111  2  63  128  219  302  358  386  385  333  205  35  -88  -129  -122  -110  -115  -135  -169  -251  -381  -505  -614  -742  -864  -934  -960  -981  -1020  -1019  -874  -620  -442  -425  -504  -612  -703  -751  -769  -771  -751  -702  -643  -593  -576  -630  -747  -854  -905  -919  -925  -925  -882  -759  -601  -534  -635  -842  -1035  -1169  -1262  -1321  -1339  -1310  -1213  -1043  -866  -778  -791  -854  -933  -993  -985  -889  -753  -659  -658  -729  -815  -894  -974  -1016  -954  -775  -565  -454  -489  -601  -697  -750  -803  -872  -928  -935  -896  -896  -1036  -1260  -1359  -1300  -1264  -1180  -611  871  3342  6444  9443  11431  11800  10480  7813  4467  1244  -1233  -2672  -3114  -2879  -2443  -2118  -1906  -1723  -1546  -1382  -1222  -1048  -873  -747  -707  -729  -787  -881  -979  -1005  -917  -761  -636  -581  -569  -573  -598  -648  -686  -674  -613  -495  -300  -76  90  171  179  135  78  61  108  189  252  282  303  336  364  356  302  225  135  29  -81  -176  -253  -326  -398  -448  -455  -438  -431  -440  -449  -463  -497  -545  -581  -576  -522  -439  -363  -320  -315  -335  -338  -274  -162  -76  -63  -102  -150  -192  -218  -190  -103  -18  36  94  167  219  197  84  -69  -177  -211  -205  -190  -175  -169  -174  -172  -129  -23  98  157  134  86  101  254  506  714  802  802  761  689  580  451  345  292  285  301  321  335  341  341  349  375  398  334  115  -199  -513  -891  -1441  -1975  -2000  -1143  639  3297  6553  9576  11390  11531  9996  7082  3581  470  -1708  -2866  -3069  -2567  -1937  -1661  -1666  -1677  -1623  -1547  -1467  -1395  -1353  -1342  -1389  -1503  -1571  -1502  -1354  -1219  -1132  -1094  -1074  -1041  -961  -801  -582  -396  -302  -271  -261  -265  -299  -374  -468  -506  -406  -198  -12  71  72  46  29  28  28  24  22  41  103  189  256  283  285  290  293  224  -2  -350  -651  -790  -800  -765  -745  -780  -897  -1056  -1171  -1204  -1184  -1150  -1113  -1059  -977  -875  -762  -654  -588  -587  -616  -621  -571  -457  -308  -174  -89  -47  -14  29  80  136  200  254  270  234  151  46  -29  -57  -72  -117  -184  -236  -262  -289  -332  -358  -307  -168  17  207  368  457  447  380  302  213  123  42  -32  -102  -168  -257  -394  -533  -595  -584  -560  -555  -558  -542  -482  -401  -378  -533  -979  -1610  -2004  -1684  -357  2062  5373  8922  11716  12952  12347  10074  6722  3142  123  -1884  -2758  -2639  -1981  -1287  -843  -737  -830  -927  -990  -1041  -1058  -1022  -961  -902  -795  -582  -357  -294  -385  -468  -474  -454  -445  -436  -397  -306  -192  -111  -85  -86  -78  -37  31  109  190  277  351  369  294  122  -65  -137  -70  29  89  112  113  77  -23  -185  -347  -446  -480  -481  -478  -498  -562  -669  -797  -957  -1147  -1290  -1299  -1169  -982  -850  -815  -837  -867  -887  -903  -916  -927  -940  -946  -903  -765  -549  -334  -178  -104  -134  -288  -525  -733  -837  -862  -871  -869  -787  -563  -270  -73  -28  -66  -117  -151  -162  -165  -176  -194  -209  -216  -216  -213  -215  -235  -279  -334  -382  -401  -341  -191  -4  150  235  242  187  70  -116  -295  -320  -191  -31  82  112  43  -79  -202  -309  -424  -633  -1009  -1465  -1766  -1582  -516  1633  4666  8028  10949  12643  12545  10605  7384  3783  653  -1488  -2534  -2722  -2436  -2013  -1691  -1548  -1495  -1451  -1412  -1371  -1298  -1185  -1068  -1009  -1056  -1195  -1351  -1456  -1476  -1414  -1257  -974  -617  -339  -221  -216  -255  -319  -412  -505  -530  -416  -148  142  258  171  -1  -156  -174  6  302  584  764  828  836  850  875  852  722  517  346  258  209  170  145  137  136  136  131  103  27  -100  -252  -407  -567  -713  -830  -914  -907  -792  -672  -624  -629  -632  -592  -516  -469  -499  -575  -661  -772  -896  -984  -1012  -989  -925  -844  -789  -774  -751  -645  -452  -245  -106  -72  -120  -200  -286  -377  -466  -547  -634  -754  -911  -1032  -993  -813  -613  -424  -215  -13  127  192  222  243  248  219  137  -18  -225  -404  -527  -639  -734  -763  -725  -667  -634  -643  -716  -952  -1433  -1979  -2209  -1845  -693  1397  4367  7867  11160  13188  13099  10827  7112  3064  -208  -2071  -2641  -2462  -2041  -1646  -1379  -1281  -1282  -1280  -1250  -1192  -1107  -996  -864  -734  -631  -560  -534  -565  -633  -712  -787  -842  -862  -832  -724  -522  -299  -161  -115  -89  -64  -55  -39  36  196  415  610  683  619  505  445  473  535  574  580  551  469  323  149  20  -39  -70  -107  -149  -192  -261  -353  -425  -442  -414  -382  -367  -366  -372  -384  -400  -416  -435  -454  -465  -471  -493  -552  -629  -695  -731  -708  -621  -511  -420  -377  -427  -600  -836  -1009  -1054  -1005  -916  -832  -770  -736  -742  -785  -824  -838  -806  -705  -570  -471  -431  -426  -432  -437  -442  -453  -470  -488  -503  -511  -515  -517  -514  -496  -466  -439  -406  -348  -288  -272  -307  -363  -409  -438  -463  -494  -541  -650  -880  -1190  -1460  -1690  -2022  -2413  -2339  -1129  1424  4874  8341  10906  11916  11162  8929  5823  2594  -117  -1963  -2840  -2869  -2387  -1831  -1510  -1422  -1401  -1347  -1262  -1187  -1133  -1082  -1038  -1025  -1031  -1030  -1018  -974  -852  -651  -433  -262  -155  -104  -89  -88  -89  -103  -151  -226  -280  -235  -55  184  372  507  655  823  974  1102  1199  1212  1122  987  877  822  816  832  837  792  673  514  374  260  150  24  -151  -366  -543  -648  -719  -756  -699  -539  -348  -201  -125  -105  -117  -169  -285  -441  -542  -507  -353  -173  -53  -8  -12  -65  -189  -345  -448  -472  -453  -423  -381  -330  -280  -232  -172  -123  -135  -231  -368  -467  -499  -498  -499  -511  -526  -545  -571  -607  -643  -668  -671  -649  -595  -513  -430  -377  -377  -428  -509  -586  -635  -661  -702  -806  -972  -1161  -1358  -1565  -1752  -1891  -2056  -2372  -2689  -2430  -1082  1312  4335  7363  9539  10197  9296  7198  4310  1263  -1190  -2723  -3370  -3246  -2657  -2048  -1721  -1667  -1677  -1596  -1438  -1299  -1226  -1194  -1148  -1048  -924  -829  -737  -589  -401  -251  -161  -87  -8  60  101  119  144  188  219  204  168  162  202  261  301  311  320  363  436  502  531  525  526  579  672  770  853  908  885  701  362  5  -249  -380  -431  -448  -464  -493  -536  -589  -658  -738  -810  -855  -871  -872  -867  -851  -808  -732  -638  -556  -487  -407  -337  -330  -402  -514  -592  -574  -448  -277  -158  -114  -82  -6  93  168  211  259  333  381  349  262  195  200  263  328  361  360  311  190  34  -79  -120  -117  -92  -41  23  64  46  -30  -121  -195  -234  -206  -119  -19  71  142  159  80  -129  -499  -1001  -1512  -1846  -1685  -631  1425  4205  7227  9889  11533  11693  10293  7618  4335  1282  -1011  -2356  -2776  -2544  -2044  -1576  -1268  -1117  -1072  -1077  -1092  -1103  -1109  -1107  -1081  -1015  -925  -851  -806  -772  -732  -689  -656  -635  -608  -542  -407  -215  -31  100  195  274  336  401  495  599  677  749  861  971  977  863  723  642  639  678  703  672  592  514  462  372  156  -141  -401  -617  -885  -1246  -1620  -1852  -1817  -1490  -1009  -600  -394  -405  -607  -896  -1115  -1196  -1185  -1148  -1117  -1105  -1096  -1057  -972  -877  -802  -756  -764  -825  -904  -980  -1041  -1075  -1103  -1142  -1186  -1210  -1216  -1241  -1320  -1435  -1507  -1469  -1332  -1180  -1042  -892  -791  -797  -852  -889  -900  -902  -886  -825  -727  -673  -723  -823  -896  -928  -938  -945  -966  -1002  -1034  -1030  -960  -842  -791  -899  -1099  -1289  -1494  -1842  -2277  -2346  -1494  457  3297  6565  9588  11635  12142  10891  8242  4936  1679  -912  -2477  -3079  -3019  -2646  -2206  -1762  -1345  -1049  -932  -969  -1119  -1322  -1484  -1550  -1531  -1451  -1310  -1106  -875  -729  -783  -989  -1188  -1289  -1277  -1119  -796  -390  -54  124  168  143  112  118  186  292  377  417  428  425  410  375  307  199  76  -17  -53  -39  -6  17  26  30  37  40  16  -63  -213  -408  -600  -748  -827  -821  -733  -603  -505  -500  -613  -802  -975  -1059  -1050  -976  -885  -825  -810  -804  -771  -706  -641  -606  -587  -552  -494  -432  -393  -387  -363  -282  -221  -249  -331  -417  -489  -522  -512  -481  -457  -440  -414  -375  -322  -247  -161  -101  -92  -121  -158  -191  -211  -193  -118  3  128  205  212  161  69  -62  -203  -282  -284  -254  -214  -177  -175  -237  -356  -496  -689  -1075  -1636  -1923  -1367  292  2928  6057  9027  11232  12190  11647  9617  6484  2967  -178  -2345  -3256  -3113  -2453  -1816  -1454  -1329  -1313  -1324  -1354  -1390  -1389  -1327  -1217  -1100  -1015  -984  -999  -1019  -972  -801  -551  -348  -254  -215  -161  -79  -7  19  8  -12  -22  -8  43  133  229  284  288  267  238  216  218  259  334  426  505  548  557  555  551  526  456  347  230  127  18  -141  -347  -527  -632  -666  -652  -611  -565  -534  -521  -510  -502  -510  -512  -456  -351  -241  -163  -181  -311  -470  -598  -692  -736  -689  -565  -446  -385  -370  -372  -384  -425  -511  -623  -715  -768  -779  -753  -708  -660  -612  -570  -530  -472  -389  -309  -234  -130  -8  86  144  176  194  197  211  269  344  392  410  427  469  495  407  194  -8  -103  -119  -110  -105  -116  -145  -185  -238  -311  -383  -467  -696  -1208  -1808  -1913  -944  1294  4436  7751  10509  12007  11752  9808  6762  3414  511  -1436  -2354  -2499  -2174  -1750  -1523  -1448  -1385  -1319  -1266  -1212  -1145  -1089  -1065  -1063  -1062  -1058  -1054  -1046  -1023  -979  -911  -827  -763  -748  -714  -567  -355  -209  -171  -188  -209  -217  -221  -225  -227  -218  -189  -143  -83  1  98  168  192  190  175  151  125  108  90  40  -54  -112  -23  188  380  474  473  360  107  -210  -433  -479  -390  -264  -177  -149  -154  -163  -169  -170  -157  -128  -100  -110  -187  -348  -546  -682  -728  -740  -752  -751  -722  -677  -639  -619  -616  -650  -745  -874  -968  -996  -978  -944  -909  -885  -883  -904  -917  -875  -760  -624  -526  -464  -394  -319  -278  -279  -292  -297  -295  -284  -249  -204  -202  -274  -375  -434  -449  -467  -492  -507  -511  -517  -533  -556  -577  -585  -580  -587  -671  -914  -1368  -1944  -2291  -1927  -503  1986  5160  8388  10921  12091  11532  9243  5809  2198  -776  -2596  -3217  -3076  -2662  -2280  -2050  -1953  -1916  -1861  -1754  -1644  -1598  -1606  -1625  -1655  -1681  -1664  -1587  -1457  -1302  -1182  -1152  -1199  -1251  -1212  -1030  -795  -638  -558  -506  -478  -473  -469  -429  -328  -210  -147  -128  -101  -64  -25  22  70  98  106  105  102  87  78  125  194  134  -90  -335  -521  -704  -900  -1031  -1056  -1023  -1006  -1050  -1169  -1338  -1476  -1496  -1409  -1313  -1263  -1253  -1256  -1233  -1160  -1061  -993  -956  -884  -719  -522  -445  -551  -763  -975  -1112  -1138  -1063  -946  -837  -787  -845  -960  -1033  -1055  -1051  -1001  -877  -661  -387  -154  -41  -46  -113  -185  -244  -298  -326  -301  -229  -146  -83  -34  15  66  110  140  145  97  -25  -198  -348  -423  -406  -289  -82  159  321  288  64  -204  -420  -662  -979  -1115  -687  559  2699  5472  8326  10611  11716  11286  9339  6275  2800  -298  -2417  -3296  -3048  -2169  -1302  -817  -713  -759  -761  -739  -752  -762  -701  -522  -244  -6  37  -66  -142  -136  -107  -75  -18  63  136  175  179  164  148  144  170  227  302  379  447  506  573  649  708  732  734  733  739  753  766  777  780  756  684  586  507  467  449  431  401  348  248  85  -124  -327  -444  -449  -401  -378  -418  -529  -694  -865  -980  -1022  -1010  -937  -790  -596  -414  -282  -211  -186  -182  -185  -187  -165  -100  -9  53  52  3  -54  -109  -179  -261  -338  -416  -500  -562  -563  -512  -462  -439  -426  -401  -369  -338  -303  -266  -228  -182  -122  -58  -10  -2  -66  -220  -435  -649  -834  -976  -1050  -1051  -1001  -904  -770  -634  -540  -507  -534  -674  -1095  -1853  -2504  -2381  -1261  674  3166  5877  8399  10254  10962  10204  7992  4837  1575  -1067  -2692  -3236  -2983  -2419  -1834  -1330  -1023  -918  -902  -911  -922  -926  -923  -921  -933  -965  -1000  -1003  -957  -882  -811  -740  -655  -571  -519  -509  -533  -558  -550  -510  -492  -537  -603  -606  -511  -349  -186  -68  -15  -60  -226  -454  -612  -609  -457  -257  -118  -49  21  152  306  377  317  177  32  -82  -168  -227  -266  -322  -438  -629  -870  -1073  -1158  -1137  -1066  -973  -900  -874  -847  -729  -476  -173  28  85  73  56  30  -31  -90  -44  66  37  -156  -327  -391  -401  -384  -326  -228  -124  -75  -127  -245  -348  -393  -386  -349  -310  -251  -135  16  137  203  238  252  233  181  127  84  30  -54  -171  -292  -376  -425  -482  -563  -629  -655  -674  -699  -694  -640  -600  -776  -1350  -2093  -2389  -1826  -387  1786  4434  7214  9741  11487  11878  10598  7868  4417  1173  -1122  -2248  -2470  -2250  -1949  -1704  -1549  -1488  -1475  -1462  -1429  -1385  -1348  -1326  -1314  -1292  -1244  -1169  -1091  -1030  -976  -916  -855  -803  -747  -676  -619  -599  -585  -552  -519  -507  -506  -494  -453  -382  -283  -147  3  110  145  124  63  -22  -90  -90  -21  64  126  157  164  127  -6  -257  -525  -647  -604  -512  -452  -429  -426  -431  -434  -432  -425  -413  -396  -365  -326  -304  -333  -424  -535  -630  -714  -776  -776  -689  -531  -354  -210  -142  -159  -238  -332  -394  -413  -410  -409  -415  -419  -416  -406  -397  -396  -393  -361  -267  -98  132  347  421  323  153  12  -60  -71  -23  105  329  541  563  395  197  52  -52  -133  -195  -253  -326  -386  -372  -273  -176  -200  -372  -619  -932  -1394  -1936  -2190  -1670  -54  2578  5881  9337  12085  13247  12433  9799  6065  2340  -435  -1955  -2464  -2374  -2091  -1837  -1593  -1325  -1105  -994  -975  -996  -1022  -1034  -1002  -907  -746  -502  -193  46  91  -50  -262  -407  -413  -296  -131  8  96  121  80  -3  -82  -118  -101  -28  113  306  457  477  397  317  289  293  298  299  308  340  401  488  581  606  500  293  15  -366  -801  -1137  -1310  -1377  -1404  -1417  -1429  -1446  -1465  -1469  -1435  -1349  -1238  -1161  -1154  -1214  -1302  -1361  -1349  -1256  -1127  -1031  -994  -998  -1037  -1115  -1188  -1176  -1062  -944  -922  -989  -1059  -1077  -1053  -1021  -995  -981  -994  -1032  -1084  -1142  -1173  -1136  -1028  -899  -816  -793  -785  -745  -655  -520  -367  -254  -202  -184  -183  -221  -319  -440  -533  -591  -643  -708  -777  -820  -828  -845  -921  -1068  -1241  -1401  -1582  -1769  -1748  -1204  176  2473  5350  8404  11039  12233  11321  8559  4783  1039  -1668  -2838  -2828  -2388  -2006  -1791  -1658  -1520  -1378  -1276  -1213  -1142  -1038  -920  -819  -734  -638  -549  -510  -512  -526  -532  -524  -503  -481  -465  -446  -406  -338  -253  -180  -124  -67  -7  31  33  9  -7  14  97  256  475  668  771  803  804  767  658  493  349  277  272  314  409  559  714  784  723  579  433  310  178  23  -112  -183  -190  -168  -146  -139  -145  -151  -135  -75  17  101  164  216  251  263  278  325  396  462  512  553  583  572  468  282  96  -24  -76  -79  -42  37  160  282  339  318  266  226  206  198  197  221  289  381  446  455  425  392  371  347  297  203  74  -42  -106  -112  -85  -57  -50  -78  -123  -159  -279  -690  -1418  -2070  -2081  -1069  1008  3839  6950  9766  11595  11901  10524  7730  4209  880  -1487  -2564  -2534  -2034  -1691  -1618  -1626  -1621  -1608  -1600  -1594  -1557  -1478  -1386  -1297  -1193  -1104  -1107  -1232  -1418  -1551  -1554  -1426  -1230  -1033  -844  -664  -544  -534  -603  -662  -646  -559  -458  -367  -264  -170  -124  -116  -118  -131  -180  -277  -411  -540  -618  -630  -602  -570  -545  -519  -498  -494  -509  -532  -559  -608  -697  -821  -941  -1015  -1061  -1150  -1333  -1560  -1717  -1751  -1708  -1652  -1604  -1552  -1510  -1531  -1647  -1814  -1917  -1849  -1614  -1351  -1154  -1022  -1007  -1127  -1285  -1400  -1458  -1471  -1468  -1457  -1440  -1421  -1361  -1205  -980  -798  -731  -748  -774  -774  -757  -736  -699  -621  -492  -332  -190  -92  -26  28  71  94  88  43  -44  -153  -253  -330  -403  -509  -641  -736  -753  -700  -581  -407  -350  -650  -1198  -1537  -1229  -19  2138  5033  8123  10647  11838  11139  8549  4769  958  -1809  -3104  -3184  -2654  -2096  -1768  -1640  -1620  -1647  -1618  -1442  -1187  -995  -887  -793  -673  -543  -438  -383  -373  -386  -402  -413  -420  -431  -448  -462  -449  -369  -212  -36  103  211  324  450  565  632  643  621  594  578  583  615  658  702  763  847  930  977  978  956  909  790  592  387  250  183  140  78  -16  -130  -236  -310  -345  -352  -354  -356  -339  -272  -162  -54  -1  -34  -170  -361  -520  -596  -598  -551  -463  -321  -127  59  162  176  137  67  2  -30  -36  -32  -21  -3  11  22  44  97  180  263  330  386  416  406  373  328  279  234  185  122  19  -131  -264  -296  -266  -273  -324  -380  -442  -532  -638  -725  -756  -757  -885  -1286  -1808  -1946  -1193  594  3216  6221  8908  10539  10646  9187  6522  3312  375  -1711  -2832  -3139  -2903  -2427  -1943  -1582  -1367  -1254  -1192  -1154  -1127  -1100  -1080  -1080  -1092  -1103  -1091  -1036  -931  -791  -669  -613  -623  -660  -688  -702  -712  -720  -714  -682  -641  -623  -609  -521  -334  -122  39  136  205  290  414  529  534  419  297  249  250  251  223  176  129  86  31  -41  -121  -170  -162  -133  -160  -287  -468  -605  -666  -687  -675  -602  -485  -392  -355  -350  -336  -292  -233  -188  -143  -61  43  111  104  43  -20  -64  -98  -117  -118  -104  -79  -42  3  45  71  82  84  66  0  -113  -227  -246  -100  156  376  481  506  511  513  461  268  -35  -285  -384  -381  -355  -350  -377  -419  -453  -459  -438  -401  -351  -295  -299  -506  -1049  -1788  -2110  -1329  720  3659  6829  9556  11309  11702  10577  8117  4942  1868  -505  -1855  -2196  -1923  -1516  -1255  -1125  -1014  -901  -796  -723  -728  -827  -968  -1066  -1079  -1033  -976  -930  -886  -851  -835  -819  -774  -708  -660  -659  -697  -747  -783  -771  -679  -535  -412  -335  -299  -288  -269  -213  -132  -72  -51  -56  -64  -66  -54  -34  -54  -207  -519  -842  -968  -886  -757  -689  -679  -712  -800  -935  -1078  -1185  -1244  -1268  -1255  -1194  -1125  -1119  -1206  -1363  -1526  -1632  -1639  -1549  -1407  -1272  -1195  -1196  -1255  -1328  -1382  -1384  -1297  -1147  -1013  -930  -891  -881  -876  -847  -781  -652  -431  -169  48  193  244  180  24  -173  -354  -461  -468  -409  -329  -235  -160  -172  -296  -471  -597  -639  -641  -644  -654  -665  -681  -715  -776  -849  -905  -934  -955  -963  -1001  -1286  -1918  -2489  -2422  -1423  543  3269  6305  9082  11004  11517  10328  7698  4364  1199  -1134  -2367  -2567  -2132  -1616  -1347  -1315  -1327  -1255  -1154  -1095  -1074  -1066  -1072  -1089  -1109  -1123  -1126  -1098  -1016  -906  -820  -774  -736  -682  -622  -581  -577  -609  -665  -731  -749  -644  -430  -225  -105  -61  -49  -42  -36  -30  -22  -9  -6  -57  -198  -386  -519  -559  -548  -530  -509  -481  -454  -432  -400  -343  -263  -183  -115  -74  -106  -228  -403  -624  -894  -1127  -1200  -1096  -891  -635  -384  -223  -185  -232  -315  -401  -452  -425  -296  -101  70  160  154  65  -72  -207  -288  -302  -280  -255  -252  -266  -273  -247  -183  -106  -33  58  176  237  177  61  -25  -77  -94  -10  249  615  912  1052  1081  1052  960  785  579  437  388  395  427  472  481  392  211  0]
