reading_id,reading_time,wire_id,result_classification,heart_rate,heart_rate_alert,firmware_version,device_app_version,hardware_version,waveform_samples
806e0b80-094e-11f0-8080-808080808080,Tue Mar 25 07:55:21 UTC 2025,a90862ba7c2c,NSR,87,NONE,128.6.21,2.9,Sense,[32767  32767  32767  32767  32767  32767  32767  32767  32767  32767  32767  32767  32767  32767  32767  32767  32767  32767  32767  32767  32767  32767  32767  32767  32767  32767  32767  32767  32767  32767  32767  32767  32767  32767  32767  32767  32767  32767  12224  -32768  -32768  -32768  -32768  -32768  -32768  -32768  -32768  -32768  -32768  -32768  -32768  -32768  -32768  -32768  -32768  -32768  -32768  -32768  -32768  -32768  -32768  -32768  -32768  -32768  -32768  -32768  -32768  -32768  -32768  -32768  -32768  -32768  -32768  -32768  -32768  -32768  -32768  -32768  -32768  -32768  -32768  -32768  -32768  -32768  -32768  -32768  -32768  -32768  -32768  -32768  -32768  -32768  -32768  -32768  -32768  -32768  -32768  -32768  -32768  -32768  -32768  -32768  -32768  -32768  -32768  -32768  -32768  -32768  -32768  -32768  -32768  -32615  -30414  -28214  -26070  -23998  -21975  -19958  -17862  -15670  -13452  -11289  -9209  -7196  -5210  -3201  -1167  860  2882  4903  6902  8848  10724  12564  14444  16427  18466  20414  22203  23970  25917  28009  29956  31634  32767  32767  32767  32767  32767  32767  32767  32767  32767  32767  32767  32767  32767  32767  32767  32767  32767  32767  32767  32767  32767  32767  32767  32767  32767  32767  32006  28678  25529  23179  21582  19885  17565  15049  12966  11425  10092  8647  7098  5568  3981  2249  563  -843  -1908  -2716  -3539  -4660  -6090  -7624  -9038  -10265  -11341  -12219  -12808  -13166  -13561  -14260  -15140  -15763  -15985  -16153  -16632  -17359  -18034  -18606  -19206  -19815  -20299  -20561  -20609  -20531  -20400  -20313  -20503  -21239  -22445  -23728  -24825  -25697  -26319  -26681  -26863  -26846  -26555  -26136  -25809  -25631  -25522  -25368  -25143  -24905  -24712  -24549  -24355  -24179  -24141  -24274  -24488  -24623  -24505  -24086  -23491  -22790  -21997  -21324  -20959  -20837  -20787  -20687  -20509  -20263  -19905  -19321  -18556  -17963  -17866  -18253  -18825  -19204  -19175  -18816  -18407  -18128  -17889  -17475  -16651  -15348  -13836  -12567  -11859  -11675  -11733  -11799  -11744  -11385  -10293  -8054  -5008  -2279  -722  -229  -220  -415  -987  -2147  -3798  -5550  -6899  -7525  -7471  -7032  -6544  -6146  -5772  -5425  -5185  -5055  -4999  -4932  -4728  -4356  -3967  -3629  -3228  -2763  -2356  -2082  -1894  -1663  -1325  -894  -463  -192  -85  78  466  960  1369  1673  1893  2006  2034  2034  2073  2211  2445  2680  2881  3124  3422  3704  3916  4101  4335  4542  4516  4156  3599  3109  2824  2685  2569  2431  2344  2401  2601  2830  3034  3257  3463  3571  3592  3588  3601  3647  3719  3790  3852  3920  3982  4012  4015  4015  4020  4023  3999  3934  3858  3826  3822  3713  3374  2899  2558  2516  2722  2994  3175  3274  3425  3698  3989  4231  4514  4905  5381  5846  6199  6444  6589  6571  6369  6088  5888  5831  5849  5852  5770  5580  5380  5323  5416  5558  5701  5824  5904  5945  5980  6032  6081  6061  5926  5706  5499  5402  5438  5539  5648  5771  5904  6013  6085  6147  6229  6302  6285  6135  5901  5693  5566  5489  5397  5271  5148  5061  5005  4963  4932  4910  4878  4813  4696  4536  4385  4291  4271  4296  4341  4398  4439  4393  4209  3947  3740  3654  3646  3641  3572  3397  3150  2962  3035  3557  4472  5464  6525  8158  10486  12718  13976  13963  12644  10287  7781  5878  4450  3240  2491  2330  2447  2551  2607  2682  2788  2862  2847  2754  2644  2545  2439  2346  2317  2355  2418  2460  2453  2408  2355  2301  2234  2181  2218  2395  2644  2811  2787  2603  2390  2204  2007  1828  1739  1720  1702  1648  1610  1757  2229  2883  3339  3371  3084  2743  2457  2158  1873  1701  1638  1617  1591  1555  1475  1241  778  215  -175  -270  -166  -17  76  100  104  132  183  214  174  59  -70  -185  -313  -440  -520  -555  -577  -610  -642  -639  -586  -509  -459  -471  -540  -622  -707  -815  -899  -826  -513  -75  235  288  164  10  -117  -247  -357  -381  -310  -202  -126  -103  -98  -73  -32  -4  -22  -87  -163  -239  -331  -405  -373  -184  82  269  296  214  121  52  -33  -180  -375  -555  -708  -886  -1075  -1219  -1311  -1371  -1371  -1235  -977  -734  -609  -592  -607  -536  -294  43  287  351  301  240  201  155  61  -75  -201  -301  -440  -669  -960  -1229  -1475  -1768  -2021  -2025  -1705  -1234  -880  -767  -858  -1116  -1437  -1565  -1540  -1790  -2253  -2319  -1416  732  3700  6634  8690  9177  8004  5580  2638  -34  -1955  -2861  -2876  -2338  -1605  -1112  -899  -737  -608  -547  -535  -578  -673  -776  -866  -969  -1078  -1158  -1208  -1264  -1357  -1424  -1277  -772  -77  427  571  495  385  300  217  157  213  446  766  993  1067  1086  1156  1272  1364  1397  1397  1399  1409  1416  1417  1425  1458  1512  1523  1378  1046  676  345  -29  -405  -655  -772  -850  -960  -1065  -1066  -926  -720  -576  -560  -637  -730  -809  -890  -959  -978  -947  -907  -892  -889  -821  -620  -355  -180  -126  -38  234  623  911  1001  984  985  1078  1266  1451  1505  1433  1340  1266  1152  960  748  552  339  164  160  374  690  896  844  569  248  -44  -372  -651  -680  -406  2  301  382  296  115  -116  -341  -487  -517  -431  -199  227  730  1019  1000  862  775  750  753  779  857  976  998  783  414  79  -165  -314  -308  -92  300  754  1110  1257  1233  1146  1035  898  747  617  506  387  284  226  150  -22  -258  -439  -513  -502  -399  -302  -601  -1397  -1992  -1747  -575  1387  3819  6387  8626  9926  9892  8269  5365  2153  -389  -1673  -1757  -1170  -583  -340  -112  266  439  223  -181  -467  -461  -215  86  326  447  346  43  -284  -548  -709  -684  -444  -101  163  282  328  378  437  496  570  658  732  778  805  855  970  1147  1333  1520  1749  1993  2187  2320  2441  2583  2676  2603  2349  2043  1857  1805  1699  1365  889  537  418  417  403  344  239  40  -288  -703  -1090  -1313  -1318  -1163  -943  -678  -365  -109  -2  -1  -24  -27  6  74  147  220  308  380  352  184  -49  -214  -267  -284  -346  -447  -526  -553  -552  -549  -553  -556  -551  -537  -524  -513  -495  -455  -394  -339  -296  -234  -121  31  178  316  481  621  606  387  76  -146  -218  -222  -251  -314  -360  -338  -253  -155  -69  26  129  207  257  304  375  430  359  89  -283  -554  -642  -638  -641  -673  -696  -657  -547  -421  -302  -166  -50  -38  -156  -329  -446  -452  -381  -305  -221  -36  266  384  -95  -998  -1775  -2168  -1984  -1060  706  3408  6639  9434  10694  9906  7429  4053  887  -1206  -2163  -2348  -2129  -1604  -1053  -1005  -1323  -1447  -1269  -1019  -812  -580  -278  40  303  524  780  1013  1101  1049  950  881  866  882  903  924  951  971  933  799  609  488  545  766  1020  1243  1485  1711  1834  1868  1885  1925  1959  1900  1690  1407  1216  1154  1086  877  583  378  310  232  2  -318  -534  -603  -714  -1059  -1553  -1919  -2026  -1971  -1891  -1834  -1785  -1747  -1745  -1791  -1859  -1901  -1870  -1767  -1649  -1536  -1403  -1293  -1308  -1495  -1765  -1957  -1982  -1876  -1735  -1633  -1571  -1524  -1484  -1451  -1421  -1385  -1353  -1351  -1387  -1438  -1472  -1482  -1495  -1536  -1598  -1638  -1620  -1548  -1468  -1401  -1321  -1217  -1111  -1025  -947  -845  -755  -776  -974  -1302  -1621  -1795  -1767  -1611  -1471  -1407  -1337  -1164  -908  -690  -576  -539  -527  -516  -493  -452  -420  -475  -683  -992  -1262  -1413  -1474  -1520  -1603  -1697  -1686  -1490  -1209  -944  -618  -160  180  -8  -693  -1455  -1880  -1477  96  2865  6338  9415  11120  10921  8865  5614  2128  -563  -1983  -2214  -1597  -779  -188  -126  -836  -1811  -2358  -2442  -2310  -2078  -1826  -1657  -1611  -1636  -1671  -1699  -1729  -1750  -1715  -1586  -1408  -1280  -1248  -1282  -1333  -1365  -1348  -1250  -1105  -997  -947  -891  -766  -595  -471  -442  -480  -507  -398  -57  411  777  971  1106  1270  1443  1563  1593  1531  1345  970  464  28  -225  -335  -396  -515  -749  -1084  -1458  -1903  -2457  -2908  -2966  -2590  -2034  -1650  -1610  -1823  -2089  -2309  -2462  -2448  -2211  -1882  -1620  -1491  -1473  -1504  -1537  -1564  -1597  -1621  -1577  -1418  -1198  -1047  -1047  -1168  -1313  -1448  -1601  -1728  -1700  -1460  -1117  -874  -831  -925  -1041  -1140  -1243  -1329  -1326  -1210  -1044  -927  -889  -878  -841  -786  -753  -744  -693  -538  -317  -166  -175  -317  -487  -645  -827  -977  -948  -670  -272  4  23  -147  -355  -541  -748  -922  -905  -627  -218  56  -14  -426  -968  -1433  -1648  -1557  -1418  -1274  -766  425  2483  5271  8275  10554  11072  9581  6602  3130  308  -1268  -1701  -1548  -1245  -996  -971  -1016  -960  -934  -1026  -1200  -1358  -1407  -1357  -1286  -1261  -1260  -1147  -801  -322  26  121  56  -33  -103  -171  -224  -206  -88  81  195  183  66  -78  -234  -443  -600  -406  359  1450  2289  2571  2452  2227  2031  1845  1690  1639  1693  1789  1834  1728  1460  1161  897  597  284  59  -59  -138  -243  -365  -458  -511  -553  -610  -660  -638  -510  -330  -201  -170  -199  -229  -241  -270  -381  -585  -804  -1007  -1239  -1440  -1481  -1341  -1131  -985  -939  -922  -864  -774  -710  -689  -656  -554  -411  -306  -272  -263  -229  -169  -131  -164  -272  -397  -523  -675  -798  -744  -436  -5  306  407  404  414  459  508  536  549  563  589  637  701  753  778  780  768  759  800  933  1126  1248  1151  807  383  41  -223  -435  -572  -628  -595  -459  -368  -602  -1177  -1872  -2348  -2056  -528  2313  5902  9238  11433  11835  10366  7543  4210  1362  -432  -1085  -890  -340  382  1090  1494  1663  1794  1898  1915  1858  1788  1730  1677  1625  1580  1543  1507  1485  1475  1415  1237  988  814  804  924  1070  1187  1276  1310  1276  1197  1090  1001  1011  1159  1396  1621  1785  1917  2058  2187  2300  2441  2622  2810  2981  3106  3080  2747  2176  1689  1470  1415  1341  1144  829  503  297  237  240  226  181  112  -1  -175  -380  -560  -660  -674  -642  -615  -606  -581  -480  -283  -38  252  614  905  903  547  36  -327  -413  -325  -210  -116  -21  51  27  -129  -341  -480  -521  -586  -799  -1113  -1322  -1260  -955  -601  -287  49  345  466  434  360  318  308  282  197  74  -13  -23  23  78  123  172  224  267  295  319  353  380  360  273  161  94  75  6  -204  -502  -720  -780  -742  -688  -657  -644  -637  -587  -414  -194  -294  -889  -1596  -1991  -1706  -262  2427  5859  9058  10955  10912  8935  5778  2440  -248  -1757  -2149  -1784  -1146  -666  -372  -248  -295  -339  -264  -88  54  -78  -637  -1416  -1969  -2068  -1857  -1598  -1391  -1183  -978  -843  -780  -743  -691  -628  -580  -553  -533  -505  -479  -485  -542  -630  -671  -564  -292  16  303  624  902  969  806  553  375  319  319  307  274  245  241  260  286  322  379  415  308  -36  -503  -835  -944  -982  -1103  -1286  -1407  -1440  -1534  -1851  -2342  -2763  -2894  -2715  -2408  -2132  -1887  -1662  -1495  -1392  -1310  -1204  -1108  -1097  -1195  -1341  -1445  -1466  -1435  -1397  -1370  -1340  -1291  -1229  -1171  -1116  -1047  -989  -1006  -1131  -1311  -1431  -1416  -1290  -1144  -1018  -882  -752  -674  -644  -628  -602  -577  -579  -623  -685  -729  -736  -723  -715  -719  -702  -597  -388  -158  48  277  484  584  599  603  635  659  560  241  -197  -512  -581  -485  -363  -279  -228  -202  -119  218  753  855  128  -905  -1616  -1582  -345  2104  5204  8027  9683  9764  8330  5826  2867  228  -1460  -2140  -1936  -1228  -636  -440  -689  -1184  -1557  -1718  -1754  -1656  -1380  -1010  -728  -615  -601  -607  -623  -709  -917  -1176  -1331  -1341  -1277  -1202  -1154  -1137  -1089  -946  -743  -585  -520  -519  -539  -544  -474  -274  29  326  528  616  604  533  449  361  260  177  157  203  277  331  336  282  158  -69  -385  -703  -969  -1179  -1390  -1661  -1937  -2128  -2230  -2297  -2368  -2420  -2422  -2392  -2366  -2372  -2379  -2238  -1810  -1220  -803  -758  -987  -1264  -1499  -1743  -1953  -2018  -1937  -1810  -1728  -1706  -1671  -1553  -1382  -1263  -1272  -1388  -1527  -1651  -1782  -1882  -1874  -1753  -1590  -1479  -1458  -1497  -1550  -1595  -1617  -1577  -1441  -1231  -1029  -920  -895  -825  -591  -254  -20  -37  -264  -532  -767  -1002  -1171  -1172  -1035  -871  -770  -763  -824  -916  -1039  -1189  -1303  -1314  -1227  -1123  -1059  -954  -620  -163  -100  -531  -973  -1220  -1202  -661  676  2978  5825  8367  9743  9415  7639  5045  2374  318  -939  -1443  -1344  -838  -186  88  -130  -402  -495  -484  -462  -453  -433  -372  -286  -225  -221  -259  -306  -348  -394  -432  -430  -377  -301  -246  -235  -252  -275  -300  -333  -354  -305  -150  45  158  184  309  723  1349  1898  2182  2238  2192  2136  2073  1975  1842  1723  1626  1493  1284  1028  801  612  387  145  -33  -135  -209  -304  -393  -408  -328  -209  -125  -111  -140  -167  -180  -211  -319  -513  -719  -906  -1114  -1297  -1363  -1326  -1272  -1266  -1274  -1129  -682  -62  375  432  210  -61  -299  -557  -770  -760  -464  -39  260  348  337  377  545  803  970  878  603  299  3  -223  -286  -197  -66  7  24  93  321  655  903  922  740  507  298  77  -120  -218  -235  -240  -269  -293  -221  25  374  617  592  316  -41  -328  -533  -662  -647  -448  -126  185  386  463  490  536  513  130  -753  -1753  -2394  -2339  -1236  954  3875  6812  8947  9836  9292  7475  4876  2105  -200  -1762  -2493  -2402  -1799  -964  -234  61  40  -22  -41  -11  72  182  264  298  292  239  122  -26  -130  -140  -73  32  165  317  432  501  619  849  1031  918  549  189  -31  -138  -139  -1  316  803  1317  1651  1746  1708  1651  1624  1645  1714  1799  1852  1802  1602  1335  1090  848  606  401  245  161  134  77  -89  -322  -496  -557  -551  -535  -538  -567  -608  -636  -629  -595  -557  -527  -492  -442  -374  -297  -235  -199  -191  -231  -345  -501  -609  -622  -567  -504  -459  -419  -362  -252  -35  284  572  642  473  221  30  -55  -48  4  58  98  145  208  274  327  370  421  475  512  531  543  561  579  578  550  506  485  543  693  878  1079  1326  1526  1499  1172  702  379  367  592  861  1098  1355  1571  1593  1386  1093  903  847  759  474  59  -239  -267  -76  156  268  131  -215  -491  -626  -728  -750  -655  -168  1184  3605  6798  9817  11512  11105  8637  5126  1879  -166  -871  -792  -650  -912  -1233  -1005  -417  24  194  194  130  67  32  23  25  24  23  28  32  7  -77  -200  -264  -147  164  518  841  1198  1511  1623  1541  1393  1293  1279  1321  1369  1406  1447  1499  1551  1587  1612  1653  1738  1861  1984  2106  2258  2381  2318  1991  1546  1246  1153  1047  714  232  -125  -246  -259  -305  -401  -478  -508  -523  -563  -620  -653  -662  -710  -859  -1069  -1215  -1213  -1096  -963  -855  -728  -557  -372  -216  -74  101  251  222  -53  -446  -730  -812  -772  -714  -668  -621  -587  -632  -805  -1047  -1213  -1207  -1062  -892  -745  -588  -451  -399  -426  -481  -511  -475  -375  -258  -136  19  141  48  -371  -959  -1378  -1464  -1326  -1151  -1007  -860  -739  -732  -867  -1066  -1205  -1231  -1182  -1126  -1088  -1039  -944  -808  -673  -547  -395  -266  -279  -481  -770  -979  -1042  -1027  -1020  -1072  -1191  -1320  -1370  -1325  -1245  -1182  -1139  -1120  -1167  -1358  -1652  -1718  -1366  -1029  -1117  -1561  -1962  -1558  135  2928  6203  9052  10671  10567  8832  6080  2929  137  -1672  -2387  -2228  -1629  -961  -731  -1371  -2413  -3023  -2966  -2556  -2209  -2095  -2131  -2176  -2111  -1868  -1528  -1292  -1278  -1437  -1629  -1785  -1905  -1948  -1901  -1831  -1756  -1597  -1303  -962  -680  -455  -294  -240  -276  -338  -373  -348  -267  -179  -103  -14  92  192  266  332  417  492  473  318  83  -115  -218  -256  -308  -476  -843  -1338  -1737  -1926  -1991  -2051  -2140  -2200  -2175  -2082  -1977  -1912  -1908  -1947  -2008  -2091  -2195  -2273  -2257  -2124  -1947  -1834  -1801  -1733  -1519  -1213  -989  -938  -1002  -1084  -1146  -1207  -1270  -1320  -1353  -1379  -1396  -1381  -1311  -1200  -1092  -1026  -1009  -1009  -1001  -982  -970  -989  -1041  -1102  -1163  -1237  -1298  -1270  -1114  -894  -738  -707  -760  -828  -891  -964  -1020  -976  -775  -490  -301  -342  -581  -860  -1117  -1407  -1650  -1656  -1364  -946  -652  -558  -531  -434  -274  -152  -109  -99  -67  -11  30  31  0  -33  -58  -93  -165  -272  -377  -474  -587  -685  -696  -603  -468  -408  -505  -681  -846  -1246  -1940  -2342  -1917  -518  1685  4312  7033  9279  10384  9970  7937  4789  1500  -949  -2082  -2172  -1756  -1326  -1051  -906  -1119  -1599  -1812  -1549  -1065  -709  -594  -588  -550  -461  -395  -429  -561  -718  -874  -1062  -1212  -1145  -768  -246  119  236  283  446  707  901  922  808  668  542  403  289  303  483  733  900  952  1008  1188  1452  1647  1691  1635  1568  1519  1460  1364  1245  1157  1107  997  681  118  -502  -1029  -1510  -1881  -1959  -1736  -1406  -1184  -1116  -1068  -909  -670  -491  -430  -422  -395  -342  -298  -282  -283  -280  -270  -273  -334  -468  -616  -749  -901  -1062  -1182  -1253  -1315  -1407  -1480  -1408  -1110  -704  -420  -330  -284  -126  120  294  261  47  -204  -438  -704  -928  -923  -620  -180  123  140  -56  -294  -513  -764  -972  -922  -498  150  716  1030  1132  1118  1054  970  854  685  501  346  215  118  114  251  515  831  1069  1123  1024  899  818  783  790  841  922  1010  1078  1113  1125  1130  1121  1057  924  774  630  464  326  335  538  835  1044  1045  860  625  479  345  -73  -787  -1299  -1284  -653  852  3195  5947  8479  9989  9898  8095  5123  1925  -616  -1966  -2212  -1743  -1076  -629  -254  155  360  343  277  242  235  243  268  322  391  452  522  682  1011  1436  1746  1843  1819  1766  1688  1557  1394  1273  1238  1261  1283  1215  987  670  458  493  738  1018  1259  1525  1800  2000  2108  2183  2278  2371  2412  2401  2368  2330  2294  2275  2286  2288  2170  1790  1136  365  -294  -650  -649  -418  -159  53  273  472  569  585  590  621  645  560  280  -105  -378  -415  -280  -116  25  177  304  313  173  -34  -174  -159  -16  153  303  446  530  481  321  144  34  5  3  -19  -64  -90  -39  96  252  403  579  726  713  489  169  -60  -135  -130  -130  -153  -171  -150  -83  -6  63  139  208  236  225  197  194  282  477  699  909  1149  1355  1377  1180  894  697  634  600  490  329  220  185  118  -86  -379  -594  -646  -589  -515  -456  -399  -349  -334  -367  -447  -591  -782  -1048  -1532  -2032  -2041  -1313  294  2701  5348  7485  8440  7922  5999  3216  515  -1438  -2315  -2176  -1483  -694  -262  -375  -777  -1171  -1398  -1429  -1349  -1259  -1192  -1123  -1047  -987  -957  -947  -908  -776  -547  -305  -84  166  387  445  323  128  2  41  223  436  628  839  1017  1036  858  590  403  411  607  868  1059  1150  1189  1215  1240  1277  1336  1377  1291  995  590  297  206  215  202  94  -152  -501  -866  -1242  -1616  -1858  -1868  -1703  -1505  -1319  -1101  -926  -1001  -1440  -2060  -2495  -2545  -2316  -2037  -1796  -1538  -1322  -1305  -1528  -1853  -2083  -2160  -2180  -2233  -2312  -2382  -2413  -2374  -2281  -2163  -2020  -1900  -1889  -2008  -2182  -2308  -2349  -2343  -2332  -2330  -2330  -2320  -2297  -2274  -2257  -2228  -2164  -2069  -1978  -1903  -1806  -1672  -1525  -1401  -1291  -1159  -1043  -1040  -1179  -1381  -1526  -1572  -1567  -1564  -1577  -1580  -1522  -1380  -1213  -1053  -869  -711  -692  -839  -1059  -1211  -1227  -1143  -1044  -974  -930  -903  -809  -460  72  284  -14  -446  -739  -574  387  2017  4020  5909  6994  6797  5294  3050  765  -964  -1720  -1634  -1149  -713  -535  -583  -922  -1383  -1585  -1494  -1323  -1216  -1189  -1196  -1198  -1187  -1179  -1198  -1252  -1318  -1368  -1366  -1281  -1142  -1006  -881  -788  -766  -814  -889  -945  -967  -965  -933  -863  -789  -769  -769  -610  -130  528  1007  1166  1165  1188  1268  1327  1277  1115  937  785  599  348  79  -139  -317  -530  -759  -927  -1024  -1117  -1262  -1374  -1204  -576  291  922  1109  1032  924  861  806  712  577  443  320  174  48  45  202  433  591  594  480  343  218  76  -41  -24  176  469  659  595  306  -24  -314  -629  -928  -1099  -1157  -1187  -1243  -1297  -1262  -1084  -832  -655  -634  -727  -838  -933  -1030  -1113  -1138  -1105  -1060  -1041  -1037  -971  -777  -520  -350  -298  -215  44  421  691  718  563  379  227  65  -107  -241  -323  -388  -479  -568  -562  -390  -58  338  540  272  -289  -806  -1100  -817  271  1951  3748  5148  5824  5635  4715  3222  1308  -474  -1667  -2156  -1995  -1410  -607  -11  -46  -451  -738  -806  -749  -628  -492  -405  -405  -471  -552  -643  -766  -855  -716  -204  504  1007  1092  886  632  422  213  35  -25  20  87  107  106  234  619  1144  1519  1634  1645  1746  1996  2317  2543  2556  2424  2251  2038  1781  1535  1357  1228  1044  736  328  -68  -406  -737  -993  -966  -571  -3  402  481  331  139  -25  -199  -343  -346  -166  99  275  246  45  -189  -402  -638  -839  -863  -679  -408  -218  -157  -145  -97  -14  49  69  74  98  166  284  409  463  434  361  267  191  194  298  450  545  492  302  84  -111  -324  -511  -577  -531  -453  -408  -399  -363  -234  -31  149  232  211  144  74  -2  -78  -132  -164  -192  -235  -273  -241  -86  156  381  496  443  183  -271  -779  -1103  -1107  -850  -514  -273  -305  -632  -942  -1138  -1392  -1594  -1549  -1020  233  2183  4495  6474  7462  7082  5353  2868  364  -1458  -2186  -2038  -1601  -1386  -1289  -897  -308  146  377  464  565  814  1174  1490  1711  1894  2033  2011  1728  1295  964  849  861  893  903  887  859  851  919  1075  1251  1411  1588  1744  1810  1798  1765  1745  1747  1762  1767  1760  1780  1903  2150  2426  2698  3028  3300  3228  2679  1902  1337  1166  1225  1322  1389  1423  1391  1230  928  590  372  307  277  168  -1  -133  -179  -177  -170  -168  -163  -159  -192  -299  -451  -540  -444  -160  165  473  827  1127  1131  760  220  -163  -247  -135  7  124  244  341  329  171  -53  -216  -262  -238  -203  -176  -149  -130  -152  -237  -355  -442  -470  -466  -458  -455  -455  -448  -432  -414  -397  -379  -363  -359  -362  -361  -348  -340  -399  -582  -835  -1008  -994  -828  -632  -460  -276  -116  -62  -115  -207  -263  -232  -125  -9  87  207  371  550  704  844  1018  1165  1130  847  453  181  95  38  -146  -427  -638  -695  -654  -603  -562  -492  -365  -343  -649  -1045  -1119  -751  326  2291  4815  7361  9269  9905  8913  6557  3670  1057  -645  -1209  -962  -543  -581  -1036  -1396  -1528  -1571  -1587  -1612  -1670  -1743  -1801  -1828  -1799  -1728  -1642  -1536  -1430  -1359  -1325  -1306  -1274  -1223  -1166  -1120  -1086  -1038  -960  -865  -784  -719  -635  -518  -389  -283  -194  -92  1  45  41  23  21  76  198  335  465  615  742  753  624  439  317  285  256  130  -104  -381  -638  -910  -1300  -1770  -2102  -2155  -1984  -1748  -1578  -1499  -1475  -1477  -1490  -1505  -1514  -1516  -1517  -1524  -1538  -1551  -1547  -1509  -1421  -1290  -1156  -1073  -1065  -1107  -1151  -1181  -1221  -1300  -1422  -1552  -1660  -1711  -1639  -1464  -1296  -1174  -1062  -942  -833  -734  -620  -518  -484  -516  -565  -589  -604  -677  -842  -1035  -1210  -1379  -1483  -1461  -1373  -1315  -1321  -1337  -1208  -804  -246  149  217  58  -126  -263  -422  -666  -979  -1284  -1544  -1716  -1613  -1143  -503  36  313  301  100  -145  -396  -679  -913  -1001  -974  -925  -911  -912  -831  -589  -263  -37  34  88  264  532  722  719  558  369  208  35  -128  -223  -252  -260  -285  -344  -428  -488  -460  -335  -318  -679  -1193  -1384  -1023  -15  1594  3704  6088  8230  9607  9708  8294  5682  2606  41  -1483  -2026  -1898  -1540  -1144  -830  -790  -885  -914  -951  -1085  -1258  -1425  -1612  -1772  -1818  -1753  -1662  -1622  -1616  -1504  -1155  -669  -324  -281  -458  -674  -863  -1064  -1233  -1243  -1054  -777  -583  -554  -640  -749  -852  -969  -1045  -938  -567  -73  277  391  399  435  511  564  580  635  815  1078  1245  1124  694  124  -540  -1338  -1988  -2105  -1664  -1005  -542  -436  -549  -688  -785  -885  -1021  -1175  -1311  -1445  -1622  -1764  -1664  -1195  -537  -70  13  -164  -379  -548  -724  -921  -1092  -1211  -1313  -1445  -1559  -1531  -1303  -981  -748  -673  -676  -670  -638  -617  -665  -791  -939  -1088  -1269  -1416  -1357  -999  -493  -134  -61  -179  -322  -432  -545  -680  -808  -908  -1002  -1128  -1230  -1157  -820  -355  -23  83  99  169  300  391  340  149  -72  -277  -508  -705  -732  -556  -294  -108  -70  -128  -205  -281  -376  -445  -342  38  572  972  1109  1079  1019  981  946  884  791  697  602  480  382  441  738  1155  1450  1500  1380  1231  1103  966  850  854  1026  1303  1563  1732  1801  1789  1717  1616  1512  1413  1343  1325  1244  802  -57  -870  -1254  -1073  -74  1834  4462  7320  9740  11093  10776  8791  5761  2472  -102  -1369  -1480  -1056  -584  -24  538  734  517  150  -96  -100  90  349  627  907  1065  1023  885  776  728  724  749  817  952  1132  1276  1348  1387  1447  1549  1681  1822  1939  2034  2148  2289  2436  2569  2654  2674  2663  2665  2724  2861  3034  3154  3171  3103  3012  2957  2942  2912  2811  2644  2409  2043  1562  1126  866  782  750  559  64  -587  -1043  -1132  -977  -790  -649  -497  -301  -94  73  211  372  528  617  645  662  700  731  674  467  176  -23  -22  137  327  500  693  853  848  631  321  100  30  20  -23  -106  -168  -163  -101  -25  42  117  181  189  131  44  -15  -13  35  97  169  270  341  214  -239  -866  -1317  -1425  -1310  -1160  -1040  -923  -828  -826  -938  -1097  -1206  -1240  -1269  -1356  -1480  -1561  -1586  -1641  -1814  -2061  -2237  -2253  -2149  -2024  -1919  -1810  -1716  -1678  -1688  -1708  -1713  -1712  -1745  -1849  -1995  -2093  -2082  -1980  -1865  -1770  -1659  -1513  -1362  -1238  -1131  -1003  -892  -888  -1010  -1169  -1249  -1267  -1428  -1924  -2615  -3119  -3253  -3152  -3012  -2896  -2775  -2684  -2753  -3062  -3474  -3651  -3347  -2845  -2832  -3399  -4001  -4255  -3842  -2493  -112  3117  6336  8407  8587  6852  3831  396  -2497  -4289  -4970  -4780  -4162  -3482  -3184  -3652  -4449  -4883  -4896  -4778  -4689  -4621  -4524  -4393  -4270  -4168  -4039  -3874  -3709  -3581  -3473  -3345  -3229  -3203  -3279  -3397  -3478  -3487  -3447  -3403  -3370  -3329  -3256  -3159  -3068  -2988  -2899  -2815  -2773  -2768  -2772  -2764  -2738  -2708  -2726  -2827  -2895  -2533  -1297  607  2266  3121  3614  4602  6440  8561  10084  10867  11404  11976  12520  12949  13204  13275  13242  13193  13175  13210  13283  13333  13336  13412  13813  14578  15305  15703  15788  15524  14990  14348  13723  13142  12359  11218  9761  8150  6555  4972  3481  2177  1127  384  -258  -827  -1157  -1492  -2213  -3194  -3935  -4216  -4226  -4196  -4209  -4261  -4356  -4540  -4835  -5163  -5396  -5500  -5545  -5610  -5716  -5828  -5911  -5962  -6002  -6053  -6101  -6113  -6085  -6038  -6006  -6006  -6036  -6082  -6116  -6085  -5926  -5667  -5428  -5289  -5243  -5253  -5282  -5305  -5315  -5337  -5410  -5540  -5691  -5858  -6060  -6198  -6087  -5652  -5076  -4664  -4502  -4411  -4227  -3953  -3643  -3243  -2719  -2184  -1799  -1632  -1578  -1363  -789  -24  575  992  1563  2507  3582  4306  4529  4515  4532  4631  4719  4711  4597  4421  4189  3903  3663  3559  3584  3699  3807  3588  2856  2196  2355  3536  5754  8733  11848  14400  15591  14915  12420  8672  4543  975  -1218  -1967  -1868  -1675  -1960  -2553  -2951  -3092  -3164  -3286  -3430  -3520  -3546  -3547  -3568  -3643  -3770  -3902  -4024  -4162  -4282  -4303  -4215  -4089  -4011  -3989  -3927  -3740  -3487  -3314  -3259  -3187  -2966  -2650  -2420  -2344  -2322  -2245  -2116  -2022  -2037  -2147  -2280  -2414  -2579  -2710  -2621  -2201  -1609  -1198  -1165  -1410  -1695  -1925  -2182  -2497  -2802  -3035  -3225  -3445  -3647  -3732  -3714  -3677  -3671  -3675  -3586  -3317  -2948  -2682  -2592  -2579  -2539  -2473  -2442  -2433  -2309  -1944  -1454  -1116  -1010  -918  -618  -167  148  116  -209  -593  -933  -1297  -1610  -1702  -1567  -1352  -1207  -1164  -1141  -1056  -921  -830  -865  -1016  -1191  -1344  -1511  -1665  -1746  -1766  -1786  -1847  -1915  -1827  -1371  -481  668  1708  2292  2461  2681  3334  4252  4964  5381  5868  6691  7612  8163  8248  8113  7921  7653  7234  6701  6234  5925  5654  5257  4796  4484  4334  4080  3498  2747  2192  1924  1726  1424  1066  756  491  300  278  443  690  852  802  544  223  -47  -277  -437  -415  -158  215  482  487  235  -131  -420  -551  -574  -565  -565  -572  -560  -526  -588  -966  -1608  -2005  -2031  -2185  -2427  -2179  -1032  1196  4208  7299  9604  10370  9356  6742  3307  171  -1948  -2849  -2813  -2346  -1918  -1713  -1427  -930  -499  -273  -156  -57  -6  -42  -134  -253  -351  -357  -234  -5  259  472  571  571  529  480  446  451  505  579  631  649  658  679  703  720  736  774  867  1052  1322  1602  1790  1862  1870  1867  1867  1868  1900  2033  2268  2368  2020  1285  583  197  104  126  42  -289  -766  -1111  -1179  -1052  -879  -728  -622  -676  -1024  -1654  -2344  -2774  -2793  -2527  -2227  -1985  -1716  -1393  -1089  -863  -678  -456  -253  -198  -310  -490  -610  -589  -445  -262  -69  148  333  412  417  421  455  478  354  -30  -561  -940  -1012  -876  -709  -577  -442  -295  -177  -108  -64  7  143  330  509  679  887  1062  1021  678  188  -154  -196  -22  182  347  525  725  897  1017  1118  1249  1363  1340  1127  822  607  578  680  803  902  1005  1114  1197  1247  1293  1358  1411  1360  1147  857  654  589  557  451  286  160  122  140  167  189  211  228  210  134  22  -78  -137  -108  108  437  379  -356  -1276  -1763  -1397  201  3027  6590  9994  12325  13000  11785  9155  5966  2939  708  -407  -507  -65  468  951  1119  800  206  -378  -742  -836  -790  -733  -701  -680  -658  -638  -623  -606  -582  -564  -590  -689  -826  -923  -942  -910  -871  -843  -810  -755  -683  -617  -561  -494  -421  -370  -356  -368  -351  -203  138  558  880  1080  1229  1361  1461  1541  1656  1838  2058  2256  2437  2667  2881  2876  2471  1596  368  -833  -1559  -1726  -1607  -1438  -1346  -1465  -1881  -2438  -2828  -2952  -3008  -3199  -3500  -3733  -3799  -3743  -3643  -3552  -3490  -3462  -3465  -3488  -3520  -3557  -3596  -3625  -3645  -3699  -3816  -3944  -3999  -3981  -3944  -3885  -3727  -3409  -3015  -2724  -2594  -2554  -2550  -2613  -2833  -3231  -3582  -3573  -3226  -2870  -2695  -2649  -2656  -2717  -2899  -3225  -3548  -3645  -3508  -3321  -3201  -3151  -3154  -3194  -3243  -3276  -3280  -3263  -3242  -3226  -3220  -3231  -3237  -3157  -2915  -2582  -2345  -2313  -2430  -2576  -2688  -2765  -2784  -2744  -2673  -2572  -2437  -2285  -2148  -2032  -1911  -1816  -1826  -1971  -2172  -2309  -2365  -2449  -2639  -2860  -2963  -2816  -2499  -2361  -2435  -2443  -2247  -1602  -259  1875  4732  7769  10065  10697  9362  6457  2825  -314  -2192  -2769  -2394  -1701  -1071  -657  -558  -537  -409  -290  -241  -216  -202  -221  -231  -63  433  1104  1580  1736  1799  2000  2312  2558  2704  2914  3319  3815  4155  4260  4283  4386  4567  4680  4555  4185  3766  3394  2980  2575  2320  2213  2147  2047  1951  1962  2129  2371  2538  2548  2444  2327  2237  2124  1951  1737  1549  1393  1204  987  806  685  583  451  339  373  604  908  1089  1139  1325  1894  2689  3273  3465  3460  3484  3584  3647  3486  3035  2451  1842  1192  659  418  388  396  360  320  392  664  1042  1313  1366  1270  1149  1045  936  845  855  1002  1219  1351  1267  978  654  374  57  -290  -576  -784  -1003  -1316  -1712  -2130  -2513  -2887  -3320  -3670  -3652  -3160  -2422  -1843  -1643  -1744  -1940  -2120  -2300  -2452  -2516  -2506  -2475  -2463  -2499  -2582  -2667  -2734  -2831  -3003  -3234  -3447  -3626  -3842  -4098  -4321  -4471  -4584  -4730  -4905  -5049  -5116  -5114  -5137  -5395  -5966  -6486  -6549  -5905  -4277  -1686  1549  4735  6793  6996  5293  2270  -1129  -3978  -5605  -6054  -5805  -5400  -5272  -5250  -5018  -4675  -4405  -4289  -4280  -4148  -3671  -2918  -2197  -1710  -1396  -1076  -710  -428  -302  -236  -124  12  74  88  299  935  1815  2467  2712  2793  2979  3255  3437  3500  3708  4338  5296  6178  6709  6912  6989  7188  7641  8232  8758  9206  9634  9980  10184  10332  10554  10851  11065  11021  10658  10117  9649  9353  9069  8589  7981  7532  7361  7336  7305  7215  7083  6906  6552  5849  4945  4268  3972  3745  3240  2532  2005  1807  1683  1320  700  57  -399  -612  -634  -569  -494  -436  -422  -525  -803  -1223  -1649  -1917  -1994  -1981  -1969  -1971  -1969  -1967  -2026  -2201  -2442  -2618  -2672  -2654  -2624  -2603  -2593  -2603  -2648  -2731  -2824  -2883  -2885  -2849  -2810  -2781  -2742  -2675  -2586  -2505  -2441  -2367  -2274  -2156  -1969  -1645  -1240  -984  -1059  -1421  -1857  -2140  -2222  -2236  -2312  -2452  -2550  -2496  -2278  -2014  -1857  -1970  -2389  -2878  -3317  -3734  -3972  -3822  -2944  -1031  1824  5116  7945  9451  9071  6805  3486  166  -2300  -3545  -3828  -3674  -3598  -3548  -3124  -2485  -2044  -1871  -1847  -1868  -1883  -1867  -1794  -1663  -1527  -1408  -1269  -1119  -1004  -940  -899  -836  -734  -610  -503  -413  -306  -196  -124  -99  -95  -63  56  271  498  703  931  1133  1210  1176  1110  1075  1067  1027  900  721  592  568  617  681  745  825  882  800  504  112  -147  -226  -344  -716  -1254  -1649  -1736  -1616  -1465  -1350  -1232  -1099  -983  -910  -863  -784  -630  -413  -206  -26  177  369  470  483  467  481  592  806  1033  1233  1463  1705  1880  1978  2058  2171  2268  2209  1916  1511  1225  1132  1103  1000  828  699  684  755  847  947  1080  1181  1044  508  -273  -897  -1099  -943  -669  -410  -142  84  165  107  1  -64  -39  63  185  305  454  571  500  154  -326  -669  -781  -798  -866  -991  -1092  -1125  -1118  -1116  -1164  -1308  -1519  -1715  -1849  -1652  -778  881  3388  6457  9386  11363  11554  9726  6463  2870  54  -1561  -2104  -1974  -1556  -1060  -853  -1093  -1484  -1782  -1923  -1894  -1753  -1599  -1471  -1332  -1191  -1097  -1052  -1024  -987  -949  -934  -941  -951  -954  -953  -974  -1042  -1137  -1198  -1174  -1077  -977  -904  -808  -621  -313  38  298  426  469  455  374  226  46  -83  -97  -21  94  240  351  277  -61  -520  -834  -929  -1002  -1266  -1699  -2108  -2374  -2553  -2769  -3031  -3220  -3247  -3151  -3027  -2913  -2785  -2681  -2710  -2924  -3228  -3451  -3523  -3496  -3430  -3347  -3264  -3212  -3200  -3215  -3234  -3247  -3249  -3230  -3191  -3150  -3121  -3097  -3072  -3052  -3039  -3012  -2941  -2815  -2677  -2561  -2461  -2387  -2373  -2418  -2484  -2529  -2545  -2562  -2601  -2650  -2700  -2759  -2808  -2795  -2702  -2580  -2507  -2487  -2418  -2200  -1888  -1672  -1678  -1864  -2082  -2271  -2470  -2645  -2721  -2712  -2676  -2663  -2715  -2841  -2988  -3121  -3237  -3273  -3171  -2959  -2684  -2376  -2211  -2398  -2698  -2626  -1770  223  3196  6571  9653  11477  11391  9477  6427  3247  884  -75  204  1113  2002  2279  2010  1743  1675  1693  1711  1715  1732  1785  1855  1906  1948  2055  2280  2557  2749  2809  2817  2851  2917  2970  2983  2969  2949  2932  2914  2900  2904  2934  2976  3004  3013  3022  3047  3084  3109  3118  3133  3170  3212  3226  3226  3306  3560  3918  4152  4074  3718  3315  2967  2574  2151  1826  1641  1520  1342  1060  730  444  201  -73  -323  -426  -399  -336  -300  -292  -266  -178  -51  32  7  -113  -251  -370  -504  -647  -757  -820  -862  -922  -1013  -1116  -1200  -1269  -1352  -1443  -1514  -1555  -1585  -1621  -1657  -1676  -1678  -1675  -1675  -1689  -1716  -1748  -1784  -1834  -1871  -1823  -1633  -1368  -1188  -1202  -1376  -1580  -1763  -1962  -2133  -2162  -2030  -1832  -1694  -1650  -1642  -1609  -1552  -1505  -1489  -1489  -1489  -1486  -1482  -1481  -1478  -1467  -1453  -1449  -1472  -1512  -1533  -1544  -1659  -2033  -2548  -2813  -2865  -3047  -3209  -2931  -1836  258  3150  6324  8808  9679  8702  6221  3013  -34  -2159  -3082  -3103  -2670  -2348  -2310  -2127  -1737  -1476  -1383  -1290  -1145  -1027  -988  -1003  -1027  -1050  -1076  -1092  -1057  -937  -775  -658  -619  -610  -581  -539  -519  -514  -445  -241  34  226  279  297  415  682  1041  1360  1516  1511  1429  1324  1251  1301  1529  1845  2070  2123  2069  2012  1990  1954  1809  1487  1089  818  709  570  260  -118  -470  -831  -1125  -1171  -937  -587  -341  -292  -372  -474  -564  -664  -742  -696  -466  -144  87  147  99  33  -23  -85  -131  -84  105  372  564  609  547  459  400  375  365  357  352  350  336  285  190  88  -11  -129  -228  -215  -50  186  362  428  425  376  270  133  42  54  149  256  345  449  580  708  809  896  1002  1095  1100  996  843  729  689  690  698  697  684  662  639  620  600  590  593  582  506  311  -69  -565  -987  -1447  -2052  -2448  -2154  -708  1936  5205  8386  10655  11325  10198  7622  4402  1330  -889  -1918  -2081  -1920  -1861  -1809  -1384  -728  -241  -30  -7  -56  -106  -124  -92  -13  74  155  245  323  342  297  232  192  182  158  75  -49  -118  -12  279  614  927  1283  1588  1626  1341  914  623  622  841  1096  1311  1541  1771  1927  2005  2062  2145  2217  2181  1989  1733  1565  1496  1344  949  421  47  -73  -117  -268  -511  -698  -749  -707  -649  -601  -553  -514  -526  -612  -736  -815  -778  -632  -465  -314  -149  -6  37  -17  -101  -151  -164  -210  -356  -560  -711  -761  -754  -740  -737  -735  -711  -658  -600  -548  -488  -421  -365  -329  -302  -269  -236  -219  -217  -221  -219  -202  -167  -127  -82  -21  25  -30  -249  -556  -767  -768  -607  -418  -258  -87  80  188  237  270  321  369  350  231  58  -52  -3  191  420  641  902  1117  1059  620  -8  -479  -655  -664  -659  -687  -716  -705  -645  -572  -567  -726  -1001  -1221  -1412  -1468  -991  226  2261  4985  7910  10365  11564  11055  8925  5781  2550  -20  -1447  -1735  -1333  -762  -598  -928  -1335  -1632  -1818  -1855  -1777  -1680  -1604  -1519  -1406  -1285  -1185  -1097  -994  -901  -886  -961  -1076  -1155  -1156  -1098  -1029  -971  -911  -859  -837  -833  -822  -790  -728  -636  -547  -473  -377  -245  -100  18  119  233  338  387  391  388  398  410  380  251  24  -239  -475  -691  -973  -1349  -1722  -1975  -2073  -2062  -2012  -1959  -1922  -1929  -1988  -2073  -2134  -2155  -2152  -2141  -2123  -2105  -2097  -2097  -2072  -1993  -1881  -1806  -1820  -1909  -2013  -2105  -2203  -2289  -2323  -2308  -2275  -2228  -2150  -2043  -1942  -1887  -1889  -1901  -1793  -1454  -984  -651  -610  -782  -991  -1173  -1368  -1533  -1543  -1360  -1089  -906  -917  -1086  -1285  -1452  -1605  -1708  -1721  -1672  -1605  -1559  -1540  -1501  -1386  -1225  -1107  -1068  -1070  -1067  -1050  -1043  -1095  -1217  -1355  -1485  -1631  -1756  -1781  -1702  -1592  -1529  -1498  -1367  -1019  -550  -227  -208  -420  -674  -891  -1120  -1318  -1380  -1306  -1183  -1101  -1086  -1100  -1079  -949  -680  -489  -722  -1271  -1772  -2003  -1648  -467  1581  4299  7138  9436  10475  9863  7815  4918  2063  -86  -1323  -1702  -1507  -994  -561  -606  -955  -1218  -1300  -1266  -1165  -1044  -975  -1028  -1199  -1402  -1597  -1802  -1912  -1733  -1216  -571  -125  9  -27  -84  -116  -133  -142  -128  -83  -27  1  11  71  241  455  577  610  775  1280  1986  2501  2633  2520  2374  2270  2165  2029  1887  1783  1712  1592  1339  968  604  284  -72  -400  -561  -581  -562  -561  -586  -624  -661  -696  -742  -779  -753  -630  -457  -338  -341  -440  -558  -668  -792  -894  -875  -695  -447  -280  -229  -175  -2  251  440  488  444  384  334  280  239  261  379  545  658  646  533  398  273  130  11  25  222  513  741  829  819  782  755  721  652  546  439  339  221  119  114  231  403  520  524  440  339  250  151  68  70  176  324  424  454  486  590  742  855  879  843  800  767  732  685  635  593  557  509  460  449  517  689  926  1082  1025  817  559  255  4  -4  281  700  1001  1073  988  864  783  760  762  764  761  773  835  958  1069  898  204  -656  -1168  -1347  -1188  -412  1288  4065  7370  10154  11397  10579  8080  4763  1654  -496  -1611  -1925  -1717  -1082  -229  227  137  -24  26  209  357  403  398  418  512  691  902  1040  1015  809  521  323  324  492  725  985  1264  1455  1483  1428  1380  1356  1344  1354  1436  1618  1824  1921  1888  1800  1704  1636  1640  1732  1871  1991  2059  2088  2106  2127  2159  2181  2131  1926  1541  1111  845  768  662  319  -178  -550  -667  -627  -565  -521  -485  -459  -483  -581  -717  -815  -835  -805  -766  -733  -699  -670  -674  -722  -792  -834  -795  -676  -541  -420  -289  -167  -102  -86  -81  -65  -49  -69  -150  -263  -343  -352  -308  -254  -200  -132  -80  -133  -349  -650  -861  -886  -773  -636  -513  -377  -265  -286  -485  -769  -972  -1027  -991  -947  -922  -891  -822  -711  -599  -498  -385  -285  -248  -270  -307  -327  -331  -358  -442  -561  -644  -643  -575  -497  -431  -358  -281  -221  -180  -132  -53  2  -123  -556  -1156  -1582  -1649  -1465  -1239  -1053  -864  -702  -642  -682  -757  -802  -780  -698  -605  -523  -434  -356  -324  -330  -342  -340  -337  -378  -504  -679  -798  -798  -712  -627  -576  -478  -207  113  -9  -671  -1241  -1044  323  2801  5872  8822  10841  11388  10251  7716  4602  1671  -509  -1678  -1929  -1613  -1369  -1473  -1640  -1678  -1628  -1562  -1520  -1500  -1485  -1463  -1442  -1451  -1511  -1605  -1673  -1648  -1521  -1363  -1218  -1058  -908  -823  -796  -786  -767  -745  -737  -751  -775  -780  -716  -568  -406  -268  -111  81  279  450  573  664  724  747  760  796  853  899  902  852  738  535  260  -28  -340  -698  -1038  -1285  -1436  -1536  -1629  -1753  -1911  -2040  -2092  -2096  -2087  -2049  -1934  -1728  -1470  -1235  -1100  -1096  -1189  -1326  -1501  -1709  -1876  -1938  -1929  -1907  -1899  -1900  -1878  -1806  -1705  -1633  -1625  -1664  -1713  -1759  -1815  -1857  -1823  -1679  -1486  -1359  -1320  -1262  -1081  -819  -626  -575  -614  -663  -694  -730  -799  -901  -1003  -1108  -1243  -1351  -1280  -934  -447  -108  -90  -313  -582  -821  -1084  -1304  -1307  -1035  -639  -360  -311  -418  -549  -653  -757  -855  -913  -936  -956  -994  -1024  -963  -742  -434  -228  -264  -506  -790  -1045  -1324  -1563  -1616  -1463  -1231  -1068  -1017  -1003  -954  -875  -820  -802  -766  -654  -495  -379  -353  -386  -428  -461  -493  -528  -558  -579  -596  -619  -639  -636  -600  -546  -516  -559  -676  -799  -857  -844  -863  -1041  -1271  -1377  -1143  -189  1616  4161  7079  9566  10820  10363  8263  5080  1699  -778  -1867  -1819  -1155  -432  123  377  185  -251  -646  -878  -919  -823  -688  -599  -580  -604  -636  -678  -741  -782  -656  -247  316  718  787  626  426  256  78  -68  -73  98  342  509  563  605  726  890  983  1007  1154  1608  2247  2695  2717  2409  2040  1718  1373  1077  1011  1208  1515  1715  1658  1367  1021  731  457  215  77  33  19  -18  -103  -222  -334  -436  -556  -659  -668  -557  -393  -279  -267  -327  -401  -472  -556  -621  -573  -357  -57  159  229  232  250  296  334  333  300  259  224  187  155  140  140  143  145  140  131  120  111  100  87  74  64  53  29  0  8  129  419  829  1135  1111  828  494  184  -47  -134  -117  -79  -61  -54  -21  55  144  224  308  377  404  400  385  356  302  232  173  141  129  123  127  166  270  416  522  503  336  102  -54  -45  96  263  411  572  710  741  650  506  415  448  595  775  957  1170  1344  1337  1105  779  557  489  434  252  -21  -224  -247  -124  36  127  33  -284  -744  -1332  -1876  -1933  -1117  901  4003  7436  10289  11650  11007  8535  5024  1606  -922  -2228  -2424  -1973  -1306  -837  -733  -772  -759  -665  -545  -460  -417  -388  -351  -313  -302  -324  -362  -375  -299  -119  84  275  493  680  711  560  334  174  131  155  178  182  204  317  540  782  1002  1244  1460  1557  1555  1526  1513  1531  1580  1634  1684  1737  1782  1791  1774  1772  1815  1839  1627  986  109  -532  -735  -683  -591  -522  -455  -417  -539  -930  -1462  -1844  -1968  -1984  -2055  -2191  -2289  -2250  -2080  -1881  -1700  -1499  -1326  -1290  -1407  -1586  -1712  -1737  -1698  -1652  -1619  -1582  -1525  -1454  -1389  -1334  -1271  -1208  -1173  -1168  -1174  -1164  -1099  -971  -835  -714  -575  -428  -320  -263  -226  -174  -99  -20  45  119  229  310  181  -293  -955  -1418  -1460  -1191  -866  -587  -292  -41  14  -144  -386  -555  -607  -619  -665  -745  -805  -807  -764  -719  -690  -654  -567  -397  -171  25  141  189  192  147  24  -175  -296  -126  281  646  828  874  848  781  703  652  636  626  595  554  535  534  485  318  55  -205  -377  -331  152  958  1313  760  -126  -600  -105  1699  4530  7748  10561  12184  12145  10400  7495  4215  1364  -436  -1112  -869  -128  638  1056  789  108  -331  -385  -287  -209  -186  -184  -173  -159  -158  -160  -100  80  330  518  587  584  565  564  605  702  822  906  934  945  1002  1165  1448  1760  1962  2023  2047  2132  2261  2349  2379  2437  2607  2839  2996  3044  3109  3323  3640  3850  3772  3425  3015  2626  2181  1737  1438  1298  1219  1085  849  551  282  48  -222  -462  -526  -401  -204  -66  -23  -17  5  47  75  86  116  204  322  400  425  465  590  770  902  936  909  873  848  823  782  730  682  636  582  535  538  608  712  778  756  655  540  440  329  215  137  102  84  50  -23  -130  -236  -341  -476  -585  -521  -201  248  567  628  513  373  264  151  30  -65  -121  -158  -215  -314  -440  -550  -640  -753  -902  -1054  -1172  -1268  -1382  -1504  -1590  -1637  -1678  -1743  -1797  -1735  -1478  -1109  -855  -911  -1294  -1794  -2165  -2368  -2520  -2688  -2845  -2982  -3153  -3355  -3532  -3653  -3736  -3847  -4038  -4260  -4340  -4110  -3585  -2844  -1844  -581  650  1455  1686  1296  84  -1975  -4376  -6401  -7644  -8100  -8059  -7962  -8186  -8763  -9229  -9125  -8501  -7602  -6642  -5771]
