reading_id,reading_time,wire_id,result_classification,heart_rate,heart_rate_alert,firmware_version,device_app_version,hardware_version,waveform_samples
8f1db210-62eb-11f0-8080-808080808080,Thu Jul 17 08:53:50 UTC 2025,89b8641d482c,NSR,93,NONE,128.6.21,2.9,Sense,[32767  32767  32767  32767  32767  32767  32767  32767  32767  32767  32767  32767  32767  32767  32767  32767  32767  32767  32767  32767  32767  32767  32767  32767  32767  32767  32767  32767  32767  32767  32767  32767  32767  32767  32767  32767  -32768  -32768  -32768  -32768  -32768  -32768  -32768  -32768  -32768  -32768  -32768  -32768  -32768  -32768  -32768  -32768  -32768  -32768  -32768  -32768  -32768  -32768  -32768  -32768  -32768  -32768  -32768  -32768  -32768  -32768  -32768  -32768  -32768  -32768  -32768  -32768  -32768  -32768  -32768  -32768  -32768  -32768  -32768  -32768  -32768  -32768  -32768  -32768  -32768  -32768  -32768  -32768  -32768  -32768  -32768  -32768  -32768  -32768  -32768  -32768  -32768  -32768  -32768  -32768  -32768  -32768  -32768  -32768  -32768  -32768  -32768  -32768  -32768  -32768  -32768  -32768  -32768  -32768  -31447  -29193  -26977  -24785  -22588  -20376  -18164  -15974  -13813  -11682  -9568  -7458  -5368  -3302  -1250  805  2861  4888  6861  8805  10770  12763  14729  16626  18497  20451  22491  24461  26282  28078  29989  31927  32767  32767  32767  32767  32767  32767  32767  32767  32767  32767  32767  32767  32767  32767  32767  32767  32767  32767  32767  32767  32767  32315  29830  27230  24772  22702  21035  19539  18007  16433  14797  12938  10824  8818  7389  6498  5575  4159  2423  912  -212  -1322  -2638  -3906  -4861  -5622  -6523  -7624  -8641  -9403  -10039  -10725  -11474  -12135  -12613  -12998  -13404  -13834  -14243  -14683  -15288  -15989  -16496  -16680  -16669  -16639  -16730  -17012  -17384  -17642  -17724  -17759  -17882  -18093  -18334  -18605  -18889  -19087  -19160  -19162  -19131  -19042  -18853  -18560  -18222  -17892  -17579  -17306  -17052  -16751  -16489  -16409  -16504  -16660  -16777  -16813  -16758  -16562  -16176  -15745  -15568  -15717  -15970  -16140  -16220  -16265  -16251  -16004  -15344  -14444  -13749  -13461  -13435  -13479  -13476  -13294  -12702  -11511  -9810  -7971  -6473  -5609  -5288  -5262  -5512  -6262  -7525  -8840  -9645  -9780  -9512  -9133  -8612  -7776  -6787  -6090  -5857  -5889  -5968  -5998  -5898  -5609  -5212  -4864  -4583  -4290  -3982  -3729  -3556  -3384  -3081  -2605  -2086  -1725  -1573  -1483  -1304  -1060  -894  -840  -750  -478  -86  248  498  783  1156  1530  1793  1966  2181  2505  2851  3069  3132  3167  3296  3497  3644  3652  3552  3434  3336  3229  3114  3023  2965  2912  2837  2775  2827  3057  3388  3664  3821  3894  3934  3988  4089  4262  4499  4736  4904  4974  4983  5035  5211  5461  5646  5704  5686  5657  5635  5616  5604  5626  5705  5813  5891  5913  5901  5886  5878  5872  5854  5812  5754  5717  5752  5886  6066  6200  6259  6277  6283  6256  6142  5923  5727  5725  5902  6108  6266  6361  6374  6313  6225  6165  6166  6221  6296  6351  6374  6383  6387  6379  6332  6223  6079  5950  5837  5733  5676  5729  5890  6075  6243  6427  6587  6639  6584  6495  6416  6315  6110  5773  5416  5218  5273  5733  6929  8861  10800  11953  12183  11723  10713  9317  7846  6537  5478  4779  4497  4480  4484  4367  4168  4018  3986  4032  4086  4122  4169  4266  4416  4571  4712  4864  4988  4978  4790  4513  4308  4263  4342  4450  4545  4642  4726  4756  4737  4700  4677  4680  4704  4732  4757  4783  4806  4811  4798  4779  4768  4764  4753  4723  4680  4618  4486  4231  3862  3485  3227  3107  3045  2990  2935  2873  2804  2749  2716  2660  2504  2196  1816  1543  1448  1464  1491  1437  1241  968  775  752  852  976  1074  1148  1173  1139  1074  1001  944  939  1009  1149  1327  1487  1582  1619  1655  1699  1655  1421  1072  782  606  519  530  665  910  1201  1430  1518  1489  1417  1330  1229  1125  1035  961  886  820  811  901  1098  1349  1520  1499  1342  1138  903  708  684  857  1110  1292  1350  1343  1339  1352  1355  1292  1142  973  820  641  439  270  156  61  -59  -166  -151  31  292  479  534  520  519  550  538  310  -194  -771  -1215  -1368  -917  290  2013  3797  5261  6208  6439  5899  4742  3147  1427  -30  -965  -1379  -1474  -1434  -1440  -1491  -1371  -1119  -973  -981  -1044  -1105  -1165  -1208  -1180  -1045  -854  -721  -720  -838  -1002  -1165  -1265  -1183  -914  -628  -461  -414  -420  -399  -300  -155  -54  -59  -148  -255  -348  -445  -525  -545  -506  -448  -406  -394  -416  -485  -611  -748  -808  -777  -705  -625  -563  -538  -533  -522  -497  -478  -495  -571  -716  -949  -1231  -1433  -1488  -1455  -1400  -1350  -1311  -1284  -1260  -1229  -1200  -1199  -1238  -1297  -1325  -1254  -1073  -869  -684  -482  -304  -228  -233  -249  -241  -232  -311  -558  -902  -1145  -1158  -978  -724  -442  -125  117  126  -130  -501  -763  -823  -755  -669  -604  -543  -485  -448  -431  -419  -400  -384  -395  -448  -520  -570  -585  -594  -628  -683  -712  -661  -524  -372  -238  -84  82  211  292  359  451  528  489  281  1  -180  -234  -327  -623  -1052  -1353  -1353  -1112  -824  -568  -289  -53  -25  -240  -540  -697  -630  -573  -848  -1332  -1538  -1152  -105  1409  3071  4652  5834  6255  5746  4402  2531  536  -1047  -1883  -2071  -1841  -1425  -941  -483  -277  -331  -396  -345  -214  -77  5  19  -8  -49  -95  -131  -125  -63  24  86  104  101  108  145  215  299  378  462  552  609  575  447  293  139  -47  -199  -140  220  738  1125  1250  1204  1130  1087  1032  887  622  322  79  -108  -247  -312  -324  -323  -331  -345  -357  -363  -366  -372  -385  -404  -423  -440  -458  -475  -481  -477  -470  -466  -465  -461  -448  -430  -418  -419  -428  -423  -366  -252  -171  -230  -400  -594  -752  -748  -509  -140  187  367  408  405  434  495  535  490  357  210  83  -65  -242  -401  -518  -608  -699  -758  -752  -717  -704  -727  -743  -638  -311  141  456  473  261  8  -209  -435  -629  -689  -619  -504  -427  -422  -473  -539  -591  -606  -548  -437  -342  -286  -229  -137  -32  56  133  195  212  138  -67  -399  -724  -863  -805  -683  -587  -531  -526  -587  -736  -965  -1185  -1336  -1469  -1447  -1009  -124  1167  2786  4472  5817  6450  6270  5238  3492  1569  -39  -1065  -1480  -1515  -1428  -1400  -1388  -1245  -1016  -813  -676  -610  -586  -567  -534  -503  -518  -602  -720  -803  -823  -813  -826  -910  -1055  -1138  -1029  -788  -548  -333  -142  -3  78  138  218  322  418  486  540  603  663  694  694  685  687  725  804  895  990  1112  1206  1133  811  371  66  -31  -91  -289  -590  -817  -874  -820  -750  -701  -648  -567  -467  -377  -301  -212  -126  -74  -56  -48  -34  -19  -17  -32  -57  -72  -62  -30  3  32  67  117  172  221  263  304  322  291  217  136  83  76  108  179  291  409  457  420  356  310  289  291  318  367  427  484  518  511  457  363  229  58  -106  -257  -433  -587  -620  -520  -373  -280  -254  -201  -35  202  374  402  331  248  187  113  -7  -166  -316  -432  -558  -719  -892  -1039  -1179  -1358  -1509  -1450  -1078  -546  -208  -345  -870  -1341  -1506  -1419  -1016  -176  1181  3003  4911  6343  6752  5940  4226  2194  421  -793  -1437  -1650  -1518  -1046  -590  -569  -845  -1077  -1162  -1135  -1040  -933  -870  -843  -764  -585  -377  -190  -7  125  150  100  24  -38  -65  -64  -55  -57  -94  -171  -260  -351  -467  -559  -496  -204  197  483  575  596  682  832  934  883  684  453  243  12  -188  -244  -146  11  115  102  -5  -127  -230  -345  -468  -561  -617  -659  -711  -761  -776  -749  -703  -680  -729  -860  -1017  -1159  -1272  -1276  -1112  -845  -596  -448  -403  -406  -412  -405  -380  -347  -321  -304  -273  -196  -68  66  182  295  388  416  383  330  295  284  276  255  226  213  207  159  32  -149  -342  -467  -414  -212  55  381  654  678  403  -3  -281  -289  -91  142  348  570  758  789  639  420  271  225  189  70  -104  -235  -280  -283  -299  -335  -359  -336  -260  -167  -90  -46  -75  -268  -755  -1438  -1890  -1707  -738  872  2820  4747  6235  6951  6651  5374  3551  1623  41  -849  -1102  -972  -664  -255  78  90  -79  -174  -258  -503  -865  -1123  -1125  -916  -662  -448  -276  -221  -320  -458  -528  -538  -527  -518  -510  -494  -457  -384  -270  -151  -50  33  69  39  -29  -117  -188  -188  -95  57  206  311  375  421  463  493  480  390  250  126  39  -6  -21  -69  -217  -428  -595  -673  -691  -697  -720  -769  -834  -895  -953  -1027  -1090  -1071  -922  -683  -454  -307  -250  -250  -267  -287  -322  -378  -437  -498  -575  -638  -602  -421  -162  36  121  157  221  316  390  414  407  395  385  374  364  373  424  522  635  692  651  555  451  325  173  29  -81  -178  -297  -401  -397  -250  -43  101  146  170  250  374  466  481  439  388  346  301  257  229  224  233  218  115  -91  -318  -529  -769  -979  -1025  -885  -666  -510  -503  -633  -850  -1099  -1310  -1497  -1711  -1667  -999  316  2147  4181  5873  6742  6569  5416  3528  1396  -409  -1564  -1914  -1622  -1119  -741  -675  -846  -994  -1017  -975  -945  -971  -1056  -1154  -1242  -1325  -1375  -1360  -1306  -1242  -1156  -1031  -903  -795  -677  -541  -415  -319  -241  -152  -76  -74  -166  -299  -399  -439  -438  -405  -323  -205  -80  36  133  224  339  438  419  239  -16  -203  -262  -249  -228  -219  -215  -203  -180  -153  -120  -73  -38  -98  -312  -611  -829  -879  -799  -672  -565  -493  -421  -316  -198  -95  0  72  76  -26  -232  -475  -631  -613  -475  -309  -135  5  61  49  18  0  8  37  72  110  163  203  152  -48  -330  -516  -466  -210  87  358  660  919  957  733  394  161  156  335  560  741  813  661  316  14  -102  -101  -78  -65  -38  27  125  234  346  448  535  587  539  372  171  24  -40  -40  -10  19  39  62  99  147  195  222  203  125  -61  -532  -1246  -1760  -1676  -895  426  2086  3864  5368  6312  6515  5779  4259  2418  725  -506  -1121  -1130  -810  -363  107  294  125  -107  -230  -282  -335  -387  -380  -287  -153  -56  -28  -38  -41  0  109  240  311  302  260  215  179  163  196  325  566  806  891  820  689  544  426  371  364  369  364  342  307  270  229  171  126  183  405  719  940  940  740  430  22  -470  -858  -955  -791  -538  -368  -353  -445  -549  -631  -723  -842  -964  -1062  -1146  -1245  -1334  -1353  -1291  -1194  -1129  -1126  -1171  -1226  -1280  -1345  -1395  -1354  -1178  -939  -775  -724  -683  -544  -335  -191  -223  -411  -632  -836  -1062  -1243  -1224  -963  -599  -344  -294  -378  -485  -567  -625  -641  -605  -554  -518  -498  -500  -531  -594  -655  -626  -442  -172  51  191  261  253  171  60  -15  -36  -39  -70  -145  -251  -354  -416  -427  -405  -376  -362  -370  -381  -349  -209  29  71  -471  -1355  -1932  -1771  -489  1833  4383  6350  7260  6973  5662  3751  1730  -22  -1176  -1598  -1471  -1156  -1023  -1104  -1179  -1155  -1057  -919  -775  -657  -553  -428  -317  -306  -420  -591  -705  -691  -572  -432  -307  -171  -54  -33  -122  -255  -349  -378  -379  -392  -422  -434  -374  -231  -74  63  226  419  596  727  847  1008  1141  1063  665  107  -293  -388  -287  -155  -54  39  118  145  129  106  104  108  41  -166  -455  -658  -677  -560  -418  -295  -165  -54  -36  -123  -254  -346  -374  -375  -388  -419  -432  -363  -195  2  187  369  487  487  429  387  379  382  343  215  36  -88  -94  -6  100  191  267  293  242  148  66  24  26  59  103  144  157  115  38  -54  -167  -260  -244  -82  148  315  369  361  349  353  357  321  217  83  -10  -53  -110  -234  -390  -499  -544  -599  -755  -1069  -1482  -1752  -1800  -1892  -1976  -1566  -373  1502  3647  5520  6609  6600  5568  3800  1728  -168  -1501  -2021  -1887  -1495  -1119  -886  -747  -651  -639  -706  -811  -900  -922  -881  -824  -797  -791  -737  -565  -325  -155  -141  -243  -368  -479  -602  -703  -692  -536  -321  -172  -102  15  289  651  902  930  794  631  491  347  223  189  248  338  395  410  442  544  691  793  793  714  629  566  478  316  91  -125  -313  -526  -726  -831  -851  -845  -856  -906  -990  -1076  -1151  -1233  -1303  -1327  -1308  -1253  -1120  -871  -577  -332  -141  -19  -38  -229  -497  -686  -729  -677  -609  -552  -490  -441  -462  -592  -781  -903  -842  -594  -291  -32  198  371  385  221  -18  -188  -234  -207  -174  -158  -135  -70  43  164  280  420  541  533  337  24  -255  -386  -358  -255  -138  -9  95  100  -15  -183  -303  -332  -304  -265  -231  -202  -201  -356  -827  -1415  -1614  -1172  -134  1307  2893  4408  5654  6442  6518  5658  3953  1844  5  -1090  -1419  -1285  -1084  -860  -536  -344  -391  -488  -523  -513  -488  -454  -408  -349  -291  -239  -180  -126  -104  -112  -130  -138  -117  -68  -13  35  90  151  198  227  247  270  289  301  330  403  504  580  610  615  623  644  676  712  743  767  797  841  898  960  1004  1015  996  951  881  802  718  607  465  332  246  210  194  151  54  -67  -153  -180  -177  -177  -187  -200  -198  -159  -62  89  200  143  -46  -269  -495  -670  -703  -589  -419  -300  -269  -283  -284  -214  -43  160  273  266  201  117  34  -27  -68  -108  -167  -214  -166  34  321  539  611  581  528  489  443  369  270  176  93  0  -85  -117  -96  -56  -37  -80  -191  -320  -445  -589  -712  -730  -626  -469  -365  -375  -474  -581  -673  -808  -1012  -1191  -1245  -1328  -1591  -1739  -1351  -226  1576  3702  5576  6596  6538  5555  3937  2188  728  -324  -957  -1181  -1107  -1074  -1239  -1313  -1178  -1055  -1061  -1139  -1208  -1241  -1243  -1204  -1101  -963  -863  -839  -872  -923  -952  -893  -695  -425  -207  -74  -7  4  -20  -53  -71  -71  -67  -92  -172  -292  -335  -194  68  320  528  666  666  514  296  145  130  211  308  387  470  548  595  618  648  710  751  611  159  -464  -932  -1105  -1119  -1143  -1237  -1363  -1438  -1414  -1327  -1222  -1101  -1000  -987  -1079  -1217  -1306  -1279  -1152  -1003  -864  -707  -574  -575  -751  -1008  -1181  -1167  -1002  -809  -641  -464  -308  -246  -264  -303  -321  -323  -355  -457  -601  -700  -694  -601  -490  -385  -261  -160  -192  -416  -736  -958  -960  -782  -538  -267  51  337  499  563  605  670  713  637  397  84  -134  -204  -204  -220  -265  -298  -276  -198  -109  -30  56  138  184  187  106  -206  -833  -1668  -2681  -3518  -3235  -1481  1092  3725  5824  6955  7061  6404  5139  3374  1480  -123  -1079  -1262  -937  -489  -286  -356  -336  -137  23  80  114  157  184  193  249  418  654  829  886  872  854  888  994  1121  1185  1171  1122  1063  1016  997  1000  1011  1013  986  925  855  783  692  621  664  876  1169  1376  1439  1449  1518  1667  1816  1829  1644  1375  1110  814  535  376  331  321  283  185  39  -101  -222  -360  -495  -578  -611  -628  -653  -680  -689  -676  -655  -641  -645  -666  -690  -710  -732  -756  -772  -782  -787  -789  -785  -776  -764  -748  -733  -729  -748  -802  -894  -1000  -1085  -1141  -1184  -1225  -1252  -1202  -1007  -668  -297  -64  -45  -173  -323  -446  -573  -692  -761  -783  -789  -805  -831  -861  -885  -905  -929  -951  -952  -927  -891  -861  -844  -837  -831  -821  -812  -814  -834  -863  -883  -883  -864  -833  -780  -706  -700  -953  -1500  -2006  -2144  -1832  -979  410  2135  3896  5321  6179  6331  5663  4272  2426  512  -1041  -1901  -1980  -1545  -1008  -764  -918  -1103  -1048  -866  -718  -620  -521  -422  -361  -337  -325  -307  -287  -279  -286  -299  -303  -271  -198  -117  -45  36  123  187  224  253  291  326  319  252  155  91  100  169  245  308  384  485  593  683  764  863  949  941  808  617  477  434  455  495  519  470  286  1  -263  -425  -487  -491  -488  -507  -544  -566  -545  -479  -404  -339  -265  -187  -128  -95  -73  -44  -10  17  36  50  59  46  -3  -82  -163  -215  -221  -184  -111  -9  71  56  -40  -161  -286  -385  -416  -390  -348  -324  -314  -285  -219  -140  -71  -15  7  -13  -63  -130  -184  -174  -81  49  143  174  178  195  223  240  246  275  360  476  558  585  598  643  714  762  742  659  563  480  385  286  222  207  215  162  -68  -455  -779  -954  -996  -673  268  1837  3719  5440  6667  7103  6600  5319  3501  1495  -246  -1346  -1681  -1414  -851  -444  -398  -409  -292  -200  -217  -282  -344  -408  -476  -534  -577  -618  -677  -724  -676  -480  -207  -10  38  -6  -65  -111  -154  -190  -194  -159  -106  -71  -68  -90  -118  -150  -195  -226  -170  31  312  509  525  405  262  142  23  -73  -109  -94  -59  -36  -75  -208  -386  -509  -548  -576  -665  -797  -897  -929  -925  -933  -980  -1068  -1143  -1138  -1062  -960  -841  -740  -709  -742  -795  -829  -838  -855  -908  -986  -1043  -1058  -1047  -1031  -1016  -999  -987  -1002  -1063  -1151  -1205  -1165  -1033  -882  -746  -598  -467  -417  -446  -501  -533  -509  -433  -345  -260  -160  -77  -93  -247  -469  -618  -599  -443  -259  -95  84  239  271  162  -4  -115  -103  8  138  251  370  477  530  538  542  562  577  519  333  79  -106  -160  -135  -95  -63  -34  -30  -99  -263  -515  -915  -1391  -1524  -978  236  1929  3734  5325  6440  6785  6226  4806  2831  818  -733  -1509  -1598  -1319  -944  -603  -266  1  88  57  13  -3  34  149  309  421  415  288  113  -11  -57  -65  -71  -61  27  231  448  524  451  310  140  3  -9  121  314  451  483  441  383  344  328  320  309  311  371  529  736  887  946  955  944  878  730  553  406  282  174  102  71  57  23  -72  -240  -425  -583  -724  -826  -814  -654  -419  -245  -212  -290  -391  -473  -574  -725  -914  -1091  -1242  -1366  -1384  -1242  -1023  -843  -752  -740  -762  -785  -804  -825  -841  -820  -740  -626  -547  -554  -645  -783  -943  -1071  -1039  -790  -426  -101  72  67  -51  -183  -292  -406  -516  -583  -608  -625  -653  -679  -657  -558  -415  -294  -215  -162  -133  -171  -327  -551  -750  -902  -994  -979  -836  -636  -488  -430  -427  -466  -579  -770  -979  -1094  -1051  -910  -739  -535  -368  -382  -641  -1038  -1392  -1588  -1615  -1474  -949  197  1816  3553  5039  5922  6015  5335  4056  2347  524  -886  -1651  -1842  -1653  -1355  -1147  -1137  -1269  -1375  -1398  -1364  -1276  -1137  -997  -874  -732  -585  -483  -432  -400  -356  -303  -262  -241  -228  -207  -166  -111  -62  -21  29  96  163  211  246  298  392  518  635  734  849  972  1067  1128  1168  1175  1107  971  847  790  780  765  686  517  310  171  166  263  381  473  529  515  435  338  253  195  173  163  135  91  53  33  26  22  11  -3  -14  2  84  239  379  385  267  125  8  -63  -54  50  205  334  400  419  423  428  427  393  315  225  135  25  -64  -32  172  463  671  722  672  607  558  514  477  463  468  474  468  464  507  637  815  944  986  983  981  993  996  949  839  717  607  483  359  278  242  221  192  155  127  111  100  83  63  56  83  167  292  306  17  -519  -1092  -1465  -1302  -420  1136  3085  4870  6001  6220  5517  4052  2127  275  -1058  -1696  -1709  -1394  -986  -710  -747  -934  -1034  -1045  -1049  -1067  -1100  -1148  -1184  -1142  -981  -758  -595  -546  -563  -591  -612  -635  -649  -616  -505  -352  -241  -214  -239  -274  -309  -352  -382  -327  -131  137  333  398  393  388  401  414  408  378  341  315  317  359  426  504  605  691  670  480  163  -163  -405  -553  -669  -816  -969  -1024  -919  -728  -520  -278  -76  -65  -287  -612  -842  -890  -821  -733  -664  -595  -538  -525  -561  -616  -655  -665  -658  -652  -653  -645  -602  -517  -425  -343  -249  -158  -100  -74  -51  -9  22  -38  -254  -553  -767  -816  -758  -688  -640  -584  -490  -364  -243  -132  2  117  112  -53  -296  -459  -438  -260  -42  171  416  620  638  433  131  -82  -130  -67  21  88  97  -5  -220  -456  -631  -722  -738  -671  -473  -130  155  106  -286  -907  -1613  -2048  -1867  -981  436  2145  3947  5553  6609  6760  5860  4154  2052  85  -1258  -1829  -1755  -1333  -781  -298  -187  -403  -604  -649  -592  -486  -390  -377  -478  -649  -815  -912  -919  -855  -744  -586  -409  -299  -289  -337  -401  -451  -466  -452  -429  -413  -407  -407  -409  -417  -432  -440  -389  -236  -26  125  174  163  142  127  111  103  134  233  370  466  475  422  362  317  260  169  54  -50  -138  -242  -354  -436  -483  -515  -555  -593  -610  -606  -599  -602  -606  -574  -474  -333  -241  -271  -410  -572  -726  -904  -1052  -1031  -782  -425  -172  -120  -204  -308  -390  -469  -539  -576  -587  -596  -610  -603  -518  -318  -64  108  122  22  -95  -193  -294  -389  -447  -473  -479  -463  -426  -390  -362  -320  -238  -118  0  107  233  343  353  242  79  -38  -73  -59  -38  -21  -4  6  -18  -103  -220  -306  -333  -327  -315  -301  -281  -270  -324  -488  -713  -872  -903  -939  -1161  -1348  -991  112  1840  3891  5842  7206  7549  6846  5374  3505  1725  356  -508  -901  -876  -585  -377  -401  -484  -502  -447  -321  -141  33  194  383  547  557  377  111  -76  -113  -52  23  83  140  190  213  216  218  229  237  200  78  -90  -201  -165  0  193  369  565  732  759  622  416  269  228  250  281  306  332  349  321  223  92  5  -21  -59  -177  -348  -476  -517  -506  -489  -481  -475  -463  -441  -415  -398  -409  -465  -545  -623  -702  -764  -760  -669  -528  -409  -362  -384  -435  -490  -553  -604  -594  -498  -357  -266  -307  -477  -695  -932  -1208  -1464  -1617  -1686  -1743  -1839  -1918  -1816  -1422  -874  -476  -355  -399  -467  -512  -549  -579  -569  -484  -331  -163  -60  -69  -151  -258  -383  -483  -472  -316  -95  62  112  115  135  179  208  172  66  -53  -162  -280  -384  -431  -433  -431  -441  -448  -399  -248  -39  108  129  64  0  -4  28  -49  -396  -843  -982  -542  516  2014  3711  5311  6400  6723  6172  4784  2890  1003  -380  -1090  -1250  -1103  -971  -935  -820  -543  -201  33  76  -7  -112  -204  -304  -384  -356  -174  84  266  291  205  100  13  -75  -152  -179  -156  -116  -83  -64  -54  -48  -42  -39  -28  19  130  270  371  410  418  429  448  465  476  483  489  499  506  494  455  408  387  382  320  137  -113  -292  -350  -372  -450  -575  -667  -668  -595  -509  -434  -355  -287  -259  -264  -276  -278  -277  -299  -368  -463  -529  -528  -474  -413  -361  -303  -237  -180  -139  -98  -40  6  -43  -250  -541  -738  -720  -526  -299  -99  115  301  360  293  183  107  84  74  39  -11  -42  -51  -88  -206  -373  -486  -466  -332  -178  -43  101  236  312  332  335  345  372  421  491  567  631  665  659  612  540  442  294  106  -54  -146  -179  -178  -148  -73  51  138  2  -463  -1096  -1548  -1775  -2004  -2078  -1616  -511  1140  2991  4538  5346  5178  4113  2439  615  -919  -1931  -2339  -2314  -2080  -1748  -1414  -1098  -859  -798  -878  -1013  -1119  -1121  -1009  -854  -754  -724  -677  -528  -314  -156  -115  -152  -202  -243  -284  -316  -304  -231  -132  -67  -48  -16  82  226  329  341  281  205  134  66  47  151  398  696  898  949  911  867  842  811  738  621  504  405  289  154  29  -89  -242  -440  -614  -705  -729  -734  -757  -815  -899  -983  -1065  -1171  -1256  -1208  -961  -613  -368  -336  -458  -610  -744  -874  -946  -856  -583  -245  -24  -15  -167  -356  -524  -670  -739  -702  -622  -552  -498  -452  -411  -384  -371  -359  -338  -318  -302  -276  -220  -135  -49  34  139  225  194  -6  -291  -491  -518  -422  -307  -212  -115  -26  23  37  42  52  65  66  50  24  11  37  103  179  251  334  402  399  315  212  159  111  -102  -528  -928  -1145  -1177  -861  -84  1113  2630  4190  5513  6324  6351  5517  3968  2098  368  -849  -1358  -1313  -995  -699  -620  -577  -426  -307  -298  -342  -377  -374  -342  -309  -285  -249  -173  -58  58  173  316  434  389  107  -292  -568  -577  -384  -161  23  226  454  648  783  888  988  1036  999  933  898  894  900  899  887  869  853  845  844  849  852  834  765  641  483  330  201  88  -5  -85  -170  -241  -273  -298  -362  -457  -524  -520  -455  -376  -315  -287  -314  -384  -476  -591  -686  -679  -539  -339  -197  -158  -172  -165  -84  71  193  154  -12  -202  -381  -513  -542  -467  -353  -278  -289  -370  -464  -552  -652  -736  -725  -587  -390  -251  -231  -294  -372  -441  -517  -579  -564  -442  -268  -145  -127  -181  -250  -313  -386  -444  -409  -234  11  184  209  130  36  -39  -119  -206  -272  -306  -324  -362  -458  -612  -777  -946  -1147  -1267  -1076  -610  -384  -790  -1498  -1877  -1503  -313  1481  3566  5419  6591  6920  6341  4985  3205  1492  264  -371  -487  -288  -45  52  -123  -443  -638  -664  -622  -562  -488  -414  -353  -302  -263  -254  -273  -304  -321  -304  -253  -194  -142  -87  -39  -17  -10  2  25  45  55  52  40  43  105  250  426  577  707  801  801  691  533  419  384  391  406  421  443  460  413  235  -62  -387  -652  -848  -1032  -1221  -1340  -1331  -1254  -1272  -1539  -1990  -2305  -2208  -1809  -1459  -1324  -1302  -1264  -1182  -1061  -912  -792  -744  -744  -753  -755  -753  -760  -786  -822  -845  -833  -790  -743  -705  -655  -577  -481  -392  -313  -219  -137  -128  -209  -330  -413  -412  -346  -268  -199  -124  -60  -51  -107  -192  -250  -257  -228  -195  -171  -140  -88  -20  37  80  136  232  378  545  664  709  707  670  587  478  403  397  440  493  539  589  631  635  593  527  479  469  504  567  577  354  -190  -853  -1349  -1419  -788  555  2365  4307  5986  7050  7241  6486  4931  2958  1113  -283  -1138  -1464  -1391  -1031  -602  -348  -246  -198  -204  -265  -338  -401  -470  -543  -597  -629  -663  -716  -757  -686  -433  -81  168  205  93  -43  -158  -276  -377  -405  -354  -272  -216  -215  -259  -317  -368  -388  -324  -153  78  280  382  403  465  676  982  1194  1180  982  753  557  344  126  -25  -101  -149  -216  -302  -375  -420  -449  -492  -569  -674  -793  -936  -1112  -1256  -1295  -1235  -1140  -1074  -1055  -1063  -1076  -1079  -1057  -1008  -953  -906  -850  -783  -717  -660  -620  -593  -579  -581  -602  -630  -650  -656  -660  -672  -689  -702  -707  -712  -722  -734  -744  -752  -759  -776  -832  -941  -1056  -1109  -1095  -1053  -995  -918  -834  -763  -704  -632  -541  -457  -394  -340  -269  -201  -201  -321  -552  -813  -959  -900  -715  -505  -268  -50  73  116  139  181  220  194  68  -109  -247  -303  -284  -178  -76  -305  -944  -1479  -1484  -865  424  2179  4014  5525  6280  6051  4911  3203  1359  -248  -1331  -1818  -1773  -1380  -885  -408  -91  -48  -180  -332  -419  -422  -374  -321  -279  -233  -177  -126  -92  -69  -32  40  143  243  329  419  493  516  500  468  445  464  545  655  733  753  741  742  812  992  1235  1422  1499  1514  1508  1461  1346  1202  1086  999  913  803  648  459  278  134  26  -51  -117  -204  -306  -392  -447  -487  -539  -605  -667  -712  -749  -791  -829  -842  -834  -826  -836  -842  -775  -569  -286  -83  -43  -113  -201  -272  -341  -401  -422  -407  -379  -363  -372  -403  -437  -467  -501  -543  -582  -613  -645  -693  -729  -679  -485  -216  -29  -19  -145  -295  -423  -557  -674  -716  -687  -637  -604  -594  -584  -551  -505  -476  -468  -446  -375  -274  -207  -227  -325  -439  -541  -653  -750  -779  -739  -673  -627  -618  -631  -649  -675  -722  -769  -706  -516  -523  -955  -1444  -1494  -899  290  1861  3602  5143  6037  6087  5285  3816  2036  371  -817  -1436  -1556  -1307  -855  -444  -375  -620  -860  -964  -980  -960  -929  -902  -881  -855  -822  -792  -773  -762  -738  -679  -585  -488  -401  -300  -211  -188  -243  -334  -384  -315  -115  121  334  549  722  728  528  234  40  80  320  599  855  1141  1383  1399  1134  747  467  379  401  443  472  478  430  286  36  -241  -425  -464  -417  -359  -318  -277  -229  -185  -153  -130  -99  -57  -17  10  29  58  113  196  290  398  510  553  444  191  -98  -281  -294  -188  -67  32  137  244  319  357  381  412  454  498  536  559  565  568  577  593  608  618  620  601  543  460  387  339  309  283  246  213  224  295  395  467  491  493  503  518  524  524  556  658  803  897  858  693  501  342  179  2  -150  -255  -329  -412  -505  -618  -823  -1128  -1368  -1501  -1647  -1605  -1051  51  1658  3553  5264  6328  6506  5813  4369  2553  884  -346  -1024  -1248  -1267  -1286  -1375  -1401  -1295  -1192  -1164  -1179  -1194  -1172  -1097  -995  -922  -899  -891  -866  -829  -805  -798  -771  -692  -580  -497  -472  -480  -494  -503  -512  -519  -510  -475  -422  -371  -334  -317  -321  -330  -329  -313  -273  -187  -22  217  439  529  492  405  302  200  110  22  -62  -134  -209  -330  -504  -684  -821  -906  -968  -1044  -1138  -1174  -1052  -809  -584  -438  -366  -379  -476  -603  -690  -716  -733  -790  -878  -941  -944  -899  -844  -796  -743  -698  -692  -734  -799  -834  -780  -632  -462  -299  -110  49  38  -195  -533  -769  -798  -679  -534  -409  -276  -164  -154  -269  -438  -556  -580  -545  -505  -482  -446  -355  -208  -57  79  232  369  419  381  312  274  322  458  615  766  945  1093  1065  797  414  140  74  140  226  288  344  397  442  491  538  485  175  -449  -1183  -1617  -1566  -1167  -405  788  2291  3957  5516  6609  6977  6473  5104  3117  1056  -563  -1531  -1834  -1687  -1377  -1091  -902  -694  -439  -282  -251  -266  -281  -293  -305  -318  -334  -349  -356  -355  -352  -351  -358  -374  -393  -413  -439  -460  -442  -366  -259  -182  -161  -174  -195  -223  -266  -293  -196  111  535  838  900  799  671  568  466  378  355  401  476  520  487  378  253  140  16  -91  -125  -84  -15  32  45  37  27  21  15  1  -19  -38  -55  -76  -107  -140  -164  -179  -207  -276  -384  -493  -589  -695  -791  -839  -850  -845  -805  -701  -562  -462  -426  -419  -404  -377  -354  -343  -339  -337  -341  -360  -405  -464  -518  -559  -588  -611  -637  -663  -684  -715  -766  -809  -800  -745  -691  -665  -656  -657  -669  -708  -769  -806  -764  -664  -568  -499  -457  -440  -437  -433  -421  -409  -433  -524  -674  -829  -944  -1007  -1033  -1042  -1050  -1064  -1083  -1103  -1121  -1130  -1113  -1069  -1020  -978  -936  -903  -876  -815  -760  -929  -1385  -1712  -1461  -503  1021  2789  4526  5922  6597  6370  5248  3496  1587  -30  -1051  -1475  -1498  -1352  -1204  -1086  -1025  -996  -921  -778  -580  -400  -319  -319  -341  -346  -305  -214  -115  -27  71  171  237  267  287  315  343  343  304  242  196  196  261  404  637  877  945  802  601  471  422  419  449  543  734  956  1063  1003  873  773  735  733  704  603  459  335  233  103  -78  -265  -386  -419  -406  -389  -381  -376  -371  -364  -356  -351  -349  -346  -336  -325  -316  -311  -313  -321  -330  -344  -368  -401  -433  -465  -506  -538  -518  -420  -285  -190  -160  -149  -109  -45  0  -8  -65  -132  -191  -253  -311  -341  -345  -342  -345  -368  -411  -454  -490  -535  -593  -651  -697  -740  -796  -843  -821  -699  -529  -405  -363  -364  -367  -369  -383  -389  -313  -85  228  454  515  474  423  392  355  270  135  0  -117  -253  -397  -501  -557  -594  -642  -689  -713  -720  -735  -769  -788  -669  -397  -310  -690  -1282  -1663  -1516  -657  823  2718  4657  6078  6580  6085  4807  3130  1517  342  -314  -573  -595  -491  -393  -486  -711  -837  -824  -757  -677  -583  -493  -409  -309  -221  -207  -278  -387  -460  -453  -386  -312  -253  -179  -67  69  193  307  446  565  554  369  99  -83  -72  94  291  464  652  813  853  761  616  516  505  557  619  675  738  790  777  674  524  392  295  217  168  161  189  207  111  -185  -594  -882  -909  -743  -542  -366  -175  -14  -6  -189  -459  -643  -641  -494  -319  -163  8  153  164  9  -219  -376  -381  -272  -144  -37  77  193  275  317  344  378  408  420  417  412  412  414  393  328  235  174  198  308  449  556  555  360  30  -267  -469  -576  -554  -385  -138  65  170  200  205  219  251  296  355  448  562  632  594  456  301  165  13  -141  -250  -306  -346  -400  -452  -456  -394  -292  -219  -250  -428  -745  -1122  -1358  -1323  -1156  -889  -397  300  1273  2710  4447  5881  6442  5885  4288  2212  395  -789  -1282  -1270  -1054  -838  -721  -677  -646  -647  -693  -769  -833  -824  -719  -570  -464  -445  -485  -534  -573  -612  -646  -659  -653  -642  -634  -633  -637  -642  -650  -664  -672  -641  -540  -402  -302  -276  -303  -342  -372  -364  -282  -129  35  158  217  218  176  103  -9  -154  -272  -326  -335  -331  -339  -375  -449  -560  -720  -921  -1082  -1147  -1148  -1135  -1129  -1128  -1129  -1131  -1130  -1124  -1110  -1096  -1084  -1069  -1046  -1019  -996  -977  -955  -932  -918  -913  -910  -906  -900  -900  -910  -925  -927  -883  -784  -676  -579  -467  -341  -235  -166  -112  -49  11  36  28  9  -3  -7  -7  -6  0  13  20  -22  -156  -343  -466  -430  -252  -47  133  328  499  572  560  523  494  481  491  553  702  901  1057  1133  1170  1184  1100  846  501  219  40  -49  -27  121  339  521  616  648  663  677  635  370  -206  -916  -1510  -1731  -1279  -62  1769  3817  5579  6719  6967  6258  4814  2957  1097  -375  -1141  -1186  -889  -603  -535  -652  -684  -575  -477  -408  -283  -110  20  65  61  51  50  55  68  107  194  309  389  401  363  320  286  248  194  132  78  28  -33  -84  -71  27  161  249  276  321  458  651  790  835  855  923  1031  1104  1079  966  843  743  617  425  192  -21  -201  -390  -553  -610  -565  -484  -431  -431  -468  -508  -539  -579  -648  -739  -824  -897  -981  -1071  -1135  -1170  -1194  -1226  -1257  -1263  -1234  -1178  -1093  -970  -836  -725  -636  -575  -582  -674  -814  -934  -1005  -1058  -1141  -1253  -1327  -1280  -1092  -850  -654  -517  -434  -444  -573  -778  -978  -1113  -1179  -1206  -1225  -1223  -1142  -958  -750  -561  -360  -184  -109  -118  -148  -163  -166  -180  -229  -299  -347  -343  -298  -245  -194  -137  -89  -96  -181  -303  -382  -355  -234  -94  32  173  292  313  226  111  70  113  42  -384  -1021  -1422  -1284  -472  937  2708  4535  6000  6761  6568  5387  3583  1612  -80  -1128  -1451  -1238  -789  -276  68  10  -235  -326  -259  -168  -103  -44  13  54  71  79  99  154  243  333  414  504  584  619  615  599  592  607  645  687  723  763  805  840  866  874  827  720  599  488  364  256  219  252  310  350  360  354  349  350  350  326  261  173  102  63  30  -17  -67  -109  -169  -269  -400  -523  -641  -789  -911  -868  -589  -194  86  141  43  -79  -180  -282  -368  -379  -302  -186  -106  -96  -134  -176  -208  -247  -313  -401  -486  -570  -679  -772  -725  -457  -39  340  561  627  613  584  543  449  293  130  -16  -180  -327  -389  -378  -347  -328  -333  -359  -388  -414  -442  -465  -470  -458  -444  -445  -448  -398  -247  -38  110  133  65  -18  -87  -157  -218  -239  -222  -191  -172  -182  -213  -242  -262  -300  -396  -551  -708  -858  -1062  -1290  -1357  -1164  -1003  -1193  -1463  -1263  -242  1545  3602  5371  6442  6608  5899  4516  2839  1191  -155  -910  -1082  -930  -821  -973  -1165  -1135  -929  -705  -546  -446  -386  -387  -480  -669  -906  -1086  -1112  -1017  -901  -795  -683  -564  -465  -383  -279  -153  -39  40  102  178  260  319  344  355  382  453  565  680  787  912  1019  1022  891  701  564  519  523  534  541  554  570  539  388  87  -306  -654  -825  -821  -738  -637  -564  -576  -696  -866  -980  -965  -844  -701  -573  -429  -307  -295  -416  -596  -719  -717  -618  -501  -399  -289  -194  -168  -219  -304  -365  -357  -265  -84  192  483  605  515  361  257  214  216  245  277  295  299  313  360  437  493  403  36  -521  -993  -1245  -1367  -1468  -1515  -1300  -652  205  793  939  844  705  615  609  680  779  845  846  797  740  689  633  585  580  629  703  744  694  553  399  272  125  -65  -294  -560  -843  -1081  -1254  -1301  -881  267  1953  3780  5343  6373  6727  6274  5071  3344  1445  -236  -1377  -1770  -1536  -995  -502  -364  -470  -507  -415  -289  -214  -243  -360  -495  -623  -774  -898  -870  -630  -289  -45  12  -48  -124  -180  -235  -302  -371  -427  -474  -520  -539  -500  -413  -327  -288  -281  -212  1  299  516  589  585  585  608  622  580  473  357  257  134  -30  -204  -344  -456  -592  -747  -874  -958  -1031  -1127  -1241  -1352  -1451  -1513  -1533  -1540  -1559  -1585  -1613  -1646  -1673  -1674  -1639  -1588  -1554  -1563  -1610  -1668  -1710  -1714  -1665  -1584  -1498  -1390  -1269  -1167  -1098  -1046  -982  -910  -856  -825  -800  -766  -735  -749  -828  -942  -1017  -1000  -901  -786  -678  -555  -452  -459  -610  -828  -981  -1002  -929  -840  -767  -693  -629  -602  -609  -627  -635  -614  -562  -503  -448  -385  -332  -324  -370  -437  -481  -494  -509  -560  -636  -686  -662  -572  -474  -395  -299  -161  12  197  361  403  201  -246  -882  -1450  -1478  -750  665  2517  4391  5921  6761  6677  5685  3996  2026  331  -631  -884  -793  -646  -626  -616  -338  99  389  445  370  279  211  173  177  232  321  413  483  525  549  564  582  607  629  633  619  597  583  589  611  634  651  673  719  798  886  936  949  1006  1181  1428  1606  1642  1583  1514  1466  1408  1303  1148  990  869  763  634  486  357  248  120  -10  -94  -131  -152  -182  -213  -224  -213  -193  -182  -188  -209  -227  -237  -262  -340  -475  -619  -758  -924  -1064  -1042  -804  -462  -218  -162  -229  -314  -379  -440  -492  -516  -518  -518  -524  -529  -503  -421  -307  -216  -173  -160  -151  -136  -120  -117  -132  -155  -172  -178  -178  -174  -165  -152  -145  -157  -192  -238  -295  -362  -422  -459  -481  -489  -447  -333  -194  -60  90  222  265  222  151  108  95  69  -10  -124  -204  -230  -246  -296  -395  -553  -753  -911  -972  -974  -980  -1030  -1185  -1470  -1604  -1187  -109  1513  3365  5011  6105  6414  5904  4650  2886  1067  -412  -1320  -1641  -1550  -1328  -1286  -1370  -1293  -1057  -826  -692  -693  -819  -991  -1109  -1133  -1096  -1053  -1021  -986  -934  -873  -823  -784  -729  -643  -542  -459  -394  -304  -157  25  188  325  487  660  787  857  902  961  1029  1085  1133  1201  1292  1364  1381  1343  1281  1222  1176  1149  1141  1122  1034  814  479  130  -132  -259  -248  -147  -24  94  201  239  180  85  18  -9  -8  9  43  101  168  186  79  -174  -487  -699  -718  -578  -356  -84  183  285  171  -10  -122  -154  -143  -118  -89  -50  -2  37  58  66  66  46  3  -43  -86  -134  -183  -215  -227  -231  -245  -284  -345  -401  -443  -505  -626  -803  -988  -1150  -1257  -1189  -885  -461  -93  106  139  91  45  22  -11  -101  -251  -402  -533  -686  -855  -993  -1087  -1153  -1185  -1130  -988  -846  -770  -792  -970  -1275  -1531  -1700  -1801  -1596  -866  395  2023  3699  5100  5898  5898  5106  3634  1838  184  -1006  -1599  -1655  -1402  -1290  -1543  -1798  -1753  -1507  -1241  -1061  -986  -970  -971  -989  -1068  -1233  -1402  -1426  -1293  -1143  -1075  -1075  -1090  -1064  -969  -836  -737  -689  -649  -581  -499  -444  -428  -418  -379  -313  -237  -161  -98  -44  20  87  131  147  151  168  220  304  393  482  598  699  663  393  -69  -567  -940  -1109  -1119  -1069  -1010  -946  -876  -813  -758  -692  -633  -617  -652  -709  -743  -707  -590  -440  -317  -300  -509  -909  -1281  -1489  -1577  -1613  -1588  -1389  -906  -260  221  385  353  285  255  294  412  590  836  1136  1380  1499  1564  1646  1700  1633  1456  1289  1211  1214  1231  1162  930  607  379  359  492  652  786  923  1043  1097  1097  1084  1075  1078  1096  1123  1135  1087  965  822  709  604  473  319  182  56  -95  -229  -236  -70  182  315  88  -513  -1172  -1632  -1791  -1417  -349  1315  3238  4950  6049  6248  5558  4209  2480  785  -566  -1420  -1687  -1446  -900  -417  -285  -383  -470  -493  -494  -497  -511  -537  -555  -514  -378  -195  -70  -31  0  107  266  380  379  286  174  72  -39  -132  -135  -24  135  248  285  292  320  368  404  416  428  464  518  557  559  533  501  471  436  408  418  483  580  658  687  652  500  167  -277  -634  -811  -882  -946  -1014  -1033  -987  -906  -806  -721  -699  -742  -809  -855  -861  -839  -812  -790  -767  -748  -742  -747  -753  -752  -749  -772  -850  -965  -1053  -1061  -993  -902  -818  -728  -644  -597  -583  -578  -568  -557  -559  -579  -602  -611  -611  -652  -778  -952  -1075  -1085  -1014  -935  -876  -799  -668  -491  -323  -172  5  161  182  39  -175  -320  -309  -174  -15  128  289  424  428  268  33  -134  -175  -138  -89  -46  0  35  0  -142  -343  -486  -511  -446  -356  -301  -356  -571  -911  -1297  -1499  -1233  -409  1023  2906  4743  6092  6649  6271  5062  3340  1537  -2  -1005  -1393  -1348  -1107  -925  -870  -779  -642  -565  -520  -444  -350  -260  -165  -90  -50  17  174  339  364  243  93  -18  -80  -73  15  160  301  387  398  361  307  241  191  226  386  611  770  800  741  667  602  531  474  491  612  785  904  904  814  710  623  527  419  330  277  244  188  79  -71  -216  -347  -498  -631  -656  -551  -392  -285  -294  -397  -520  -640  -785  -901  -837  -507  -42  284  324  157  -45  -219  -404  -560  -580  -435  -220  -69  -39  -87  -148  -196  -243  -283  -302  -300  -292  -292  -324  -394  -470  -538  -615  -695  -750  -780  -805  -842  -873  -845  -726  -560  -440  -407  -424  -444  -451  -467  -535  -664  -803  -929  -1068  -1192  -1247  -1241  -1207  -1140  -1015  -864  -753  -707  -690  -656  -567  -417  -251  -145  -132  -180  -235  -275  -318  -380  -466  -559  -618  -605  -531  -444  -361  -262  -181  -204  -380  -641  -861  -990  -1159  -1512  -1793  -1546  -639  861  2695  4437  5738  6320  6100  5147  3617  1850  259  -803  -1250  -1232  -1009  -926  -1018  -1031  -920  -795  -672  -528  -388  -259  -110  22  65  22  -47  -88  -98  -136  -253  -419  -538  -555  -504  -445  -404  -349  -245  -99  42  169  314  443  485  436  351  304  362  525  711  884  1080  1248  1269  1118  893  731  680  685  691  681  666  658  664  687  691  588  316  -34  -313  -482  -565  -541  -399  -197  -42  6  -27  -87  -141  -198  -245  -257  -233  -195  -165  -154  -164  -201  -275  -364  -427  -436  -399  -324  -202  -50  64  104  96  78  67  74  106  152  176  139  38  -75  -176  -289  -400  -469  -497  -511  -534  -565  -593  -613  -630  -653  -672  -662  -611  -542  -497  -484  -461  -385  -275  -201  -225  -338  -471  -599  -752  -877  -835  -558  -164  115  171  78  -37  -128  -217  -303  -358  -383  -400  -426  -449  -438  -376  -291  -235  -217  -196  -128  -30  42  62  48  29  13  -2  -14  -9  22  72  108  99  28  -108  -298  -440  -378  -129  119  265  321  302  211  77  -44  -108  -168  -334  -447  -161  689  2109  3901  5659  6940  7427  7068  5978  4392  2657  1057  -143  -761  -787  -470  -266  -323  -435  -476  -478  -481  -479  -428  -288  -91  86  210  289  352  434  525  588  617  632  660  714  786  850  902  969  1062  1165  1251  1321  1397  1479  1540  1571  1587  1621  1704  1833  1964  2088  2234  2359  2353  2173  1910  1728  1723  1858  2029  2182  2298  2290  2091  1765  1455  1274  1226  1225  1198  1146  1112  1102  1059  926  738  607  603  701  822  931  1045  1136  1170  1161  1145  1133  1128  1134  1162  1220  1293  1347  1371  1375  1373  1377  1398  1447  1514  1573  1612  1640  1672  1707  1735  1739  1697  1619  1548  1499  1470  1469  1509  1596  1716  1809  1820  1765  1684  1591  1518  1524  1629  1782  1895  1929  1913  1886  1863  1839  1820  1831  1888  1970  2022  1999  1908  1803  1704  1591  1496  1496  1622  1805  1930  1927  1823  1702  1599  1489  1384  1321  1297  1284  1264  1242  1241  1272  1321  1343  1275  1109  920  748  557  389  330  375  455  508  524  530  557  601  629  614  560  499  448  385  303  219  155  107  40  -60  -178  -278  -358  -454  -567  -676  -763  -806  -808  -836  -972  -1275  -1741  -2122  -1998  -1340  -545  184  948  1765  2465  2902  3104  3081  2555  1220  -646  -2268  -3217  -3734  -4135  -4420  -4520  -4511  -4553  -4745  -5024  -5232  -5290  -5251  -5192  -5140  -5083  -5043  -5092  -5275  -5515  -5668  -5714  -5812  -6118  -6555  -6880  -6974  -6921  -6852  -6822  -6821  -6837  -6865  -6817  -6473  -5636  -4390]
