reading_id,reading_time,wire_id,result_classification,heart_rate,heart_rate_alert,firmware_version,device_app_version,hardware_version,waveform_samples
e0133730-7047-11f0-8080-808080808080,Sun Aug 03 08:57:25 UTC 2025,89b8641d482c,UNCLASSIFIABLE,105,NONE,128.6.21,2.9,Sense,[3984  4746  5272  5558  5731  5879  6017  6138  6269  6449  6668  6880  7075  7268  7460  7640  7805  7984  8199  8431  8663  8896  9123  9358  9626  9928  10220  10476  10714  10969  11244  11511  11749  11995  12283  12602  12919  13225  13533  13857  14188  14496  14763  15017  15303  15631  15969  16301  16642  16998  17340  17640  17910  18209  18572  18947  19258  19508  19798  20199  20654  21052  21378  21720  22117  22492  22782  23043  23390  23844  24306  24699  25030  25320  25576  25817  26049  26095  25447  23675  21227  19177  18018  17366  16646  15622  14497  13531  12557  11211  9605  8241  7300  6430  5276  3972  2951  2369  1981  1484  721  -269  -1237  -1897  -2196  -2472  -3245  -4571  -5915  -6834  -7104  -6554  -5242  -3343  -1121  926  2148  1985  263  -2751  -6340  -9599  -11961  -13238  -13609  -13512  -13289  -13157  -13216  -13389  -13587  -13763  -13903  -14068  -14330  -14642  -14848  -14878  -14820  -14793  -14788  -14778  -14872  -15117  -15363  -15509  -15599  -15663  -15673  -15630  -15559  -15461  -15322  -15135  -14935  -14797  -14732  -14686  -14613  -14526  -14464  -14417  -14336  -14197  -14045  -13914  -13785  -13679  -13634  -13637  -13651  -13656  -13657  -13671  -13713  -13767  -13804  -13834  -13902  -14026  -14155  -14234  -14259  -14256  -14224  -14145  -14015  -13803  -13430  -12938  -12526  -12297  -12092  -11683  -11072  -10489  -10100  -9908  -9851  -9879  -9957  -10036  -10052  -9960  -9787  -9572  -9335  -9112  -8915  -8728  -8512  -8211  -7865  -7608  -7451  -7275  -7043  -6837  -6687  -6536  -6344  -6114  -5866  -5621  -5427  -5317  -5264  -5237  -5229  -5230  -5223  -5178  -5001  -4591  -4048  -3637  -3477  -3473  -3508  -3542  -3574  -3602  -3592  -3496  -3330  -3157  -2982  -2736  -2393  -2034  -1751  -1575  -1546  -1828  -2558  -3497  -4090  -3741  -2098  632  3867  7014  9606  11305  11731  10689  8409  5366  2255  -203  -1600  -1973  -1710  -1225  -839  -683  -595  -410  -114  234  539  729  814  838  836  826  834  905  1079  1312  1498  1616  1741  1922  2118  2260  2332  2376  2423  2467  2517  2593  2668  2702  2707  2724  2776  2849  2891  2861  2787  2711  2631  2545  2431  2211  1843  1422  1123  1012  1014  1044  1074  1110  1155  1186  1139  944  654  430  348  351  367  372  376  402  462  535  559  503  462  557  795  1144  1574  1977  2249  2421  2593  2801  3014  3231  3472  3684  3780  3760  3698  3658  3671  3729  3807  3902  3979  3977  3886  3779  3760  3868  4072  4331  4610  4858  5018  5089  5115  5140  5189  5240  5218  5056  4772  4487  4312  4254  4264  4304  4363  4438  4512  4510  4261  3632  2809  2194  1934  1860  1781  1603  1307  904  410  -82  -479  -893  -1411  -1687  -1237  164  2499  5412  8335  10704  11880  11393  9311  6196  2835  -2  -1807  -2521  -2350  -1618  -845  -467  -508  -749  -1084  -1481  -1789  -1884  -1815  -1695  -1611  -1604  -1688  -1861  -2084  -2257  -2271  -2130  -1913  -1636  -1301  -997  -821  -767  -771  -793  -820  -855  -893  -923  -940  -945  -919  -836  -703  -557  -422  -300  -189  -95  -40  -25  -18  10  58  98  104  59  -56  -265  -526  -741  -870  -945  -981  -995  -1032  -1118  -1222  -1321  -1419  -1468  -1404  -1233  -1040  -919  -884  -872  -820  -729  -630  -537  -456  -392  -336  -294  -295  -354  -458  -569  -658  -710  -733  -742  -749  -759  -771  -787  -821  -866  -856  -701  -405  -75  190  349  391  343  235  38  -213  -339  -267  -110  40  163  269  392  543  687  772  777  729  675  631  585  543  517  503  491  471  424  345  258  183  121  103  112  -53  -592  -1254  -1447  -840  632  2928  5753  8704  11313  12980  13146  11567  8514  4722  1201  -1217  -2360  -2524  -2102  -1456  -929  -777  -913  -1067  -1152  -1216  -1249  -1226  -1177  -1128  -1029  -830  -602  -477  -451  -425  -378  -342  -302  -216  -65  131  316  433  478  480  446  352  223  186  334  579  782  934  1085  1227  1316  1336  1308  1276  1261  1225  1088  808  476  223  57  -98  -289  -494  -684  -789  -665  -331  -26  106  127  118  86  -25  -263  -556  -758  -790  -688  -545  -450  -434  -467  -505  -530  -561  -623  -715  -810  -889  -942  -925  -835  -744  -707  -712  -723  -694  -593  -453  -356  -361  -449  -552  -643  -744  -829  -844  -774  -666  -566  -480  -397  -331  -295  -284  -287  -295  -302  -308  -318  -324  -314  -275  -226  -203  -232  -301  -371  -427  -491  -556  -603  -624  -633  -649  -690  -771  -880  -977  -1066  -1241  -1544  -1778  -1643  -918  559  2851  5823  8977  11446  12385  11325  8494  4819  1368  -1104  -2311  -2548  -2407  -2243  -2075  -1876  -1676  -1499  -1349  -1226  -1126  -1030  -931  -867  -873  -937  -1015  -1095  -1188  -1264  -1245  -1096  -884  -732  -698  -746  -811  -858  -854  -765  -615  -474  -317  -51  286  550  680  748  828  905  911  841  747  653  567  486  351  85  -272  -545  -593  -436  -206  -47  -26  -114  -233  -312  -343  -368  -421  -489  -545  -581  -598  -603  -623  -685  -774  -838  -842  -788  -704  -615  -570  -634  -796  -989  -1104  -980  -621  -257  -55  -2  -25  -68  -102  -132  -178  -222  -221  -160  -68  8  59  95  115  119  118  131  164  175  84  -97  -219  -156  29  162  148  73  76  212  402  505  453  287  95  -45  -114  -153  -196  -238  -263  -294  -385  -604  -946  -1287  -1510  -1667  -1820  -1732  -996  671  3219  6128  8704  10304  10398  8877  6222  3223  484  -1634  -2854  -3267  -3222  -2871  -2274  -1624  -1156  -931  -823  -745  -747  -867  -1027  -1150  -1245  -1298  -1266  -1152  -1013  -921  -899  -916  -928  -887  -759  -580  -432  -348  -312  -290  -247  -169  -66  31  108  159  155  90  2  -58  -23  128  330  526  705  815  760  507  181  -50  -137  -161  -207  -281  -340  -400  -547  -875  -1374  -1798  -1799  -1364  -818  -417  -183  -58  -20  -113  -369  -696  -920  -947  -811  -618  -478  -420  -408  -403  -390  -378  -381  -385  -348  -211  47  338  511  531  485  446  429  411  368  305  254  240  278  361  449  518  588  672  756  774  656  443  221  45  -85  -206  -305  -353  -389  -467  -585  -714  -853  -987  -1072  -1111  -1181  -1350  -1570  -1726  -1816  -1966  -2176  -2180  -1688  -572  1187  3492  6082  8459  9920  9926  8378  5692  2580  -239  -2204  -3105  -3092  -2578  -2040  -1703  -1548  -1505  -1495  -1480  -1484  -1528  -1568  -1592  -1625  -1605  -1465  -1249  -1031  -846  -720  -669  -655  -559  -286  79  334  403  373  317  235  111  -32  -143  -110  197  697  1102  1274  1298  1269  1206  1097  949  800  688  603  514  416  319  207  70  -61  -182  -326  -462  -526  -516  -471  -427  -416  -491  -689  -955  -1191  -1369  -1478  -1456  -1284  -1041  -832  -715  -681  -682  -688  -694  -698  -680  -607  -461  -280  -132  -38  19  53  46  -30  -150  -274  -391  -449  -407  -316  -241  -183  -111  -15  80  162  233  285  290  222  92  5  101  352  576  683  714  692  583  416  280  200  112  -22  -165  -286  -406  -506  -544  -524  -494  -539  -787  -1296  -1928  -2338  -2084  -849  1349  4142  6900  9068  10344  10453  9176  6663  3488  360  -2100  -3350  -3301  -2550  -1795  -1397  -1353  -1418  -1397  -1273  -1118  -1012  -979  -983  -988  -989  -1003  -1042  -1062  -1019  -933  -831  -708  -572  -466  -427  -442  -486  -560  -645  -693  -635  -398  -9  355  543  570  540  519  511  496  465  452  524  674  777  733  564  367  236  175  79  -163  -502  -748  -761  -598  -521  -711  -995  -1103  -989  -789  -651  -604  -559  -447  -296  -172  -151  -327  -654  -972  -1198  -1294  -1221  -1005  -753  -580  -512  -470  -381  -244  -82  28  -41  -306  -601  -790  -866  -869  -821  -696  -447  -119  127  190  109  -15  -111  -162  -184  -200  -226  -261  -294  -318  -337  -361  -380  -381  -361  -346  -366  -432  -517  -585  -636  -695  -763  -822  -867  -921  -1006  -1104  -1251  -1637  -2330  -2848  -2537  -1208  1017  3892  6930  9541  11179  11437  10173  7647  4430  1212  -1291  -2745  -3244  -2985  -2314  -1619  -1147  -973  -930  -873  -887  -1066  -1335  -1531  -1574  -1518  -1448  -1397  -1344  -1272  -1186  -1098  -990  -828  -651  -545  -518  -471  -320  -104  53  105  98  76  47  21  61  254  561  806  876  801  678  594  574  592  615  631  648  667  675  653  570  414  222  50  -101  -242  -343  -394  -431  -474  -504  -492  -421  -285  -123  -12  26  43  82  132  180  237  302  364  411  430  437  491  640  855  1081  1235  1178  919  659  504  388  270  192  177  197  226  256  282  300  313  329  360  412  477  522  502  392  225  74  -15  -46  -46  -57  -106  -178  -231  -242  -224  -199  -185  -196  -239  -297  -355  -421  -476  -491  -474  -474  -554  -762  -1104  -1548  -1991  -2183  -1798  -580  1557  4360  7414  10274  12158  12251  10361  7031  3232  -47  -2161  -3069  -3168  -2848  -2424  -2114  -1910  -1683  -1418  -1226  -1149  -1092  -958  -763  -599  -518  -511  -572  -710  -886  -1014  -1065  -1087  -1111  -1091  -980  -819  -646  -444  -255  -146  -110  -95  -66  -16  38  82  116  154  194  232  274  306  260  92  -109  -214  -215  -175  -125  -72  -9  70  143  164  92  -101  -402  -753  -1060  -1254  -1339  -1366  -1340  -1225  -1011  -767  -600  -539  -520  -493  -479  -506  -546  -545  -501  -463  -478  -558  -695  -855  -971  -1015  -1011  -992  -966  -928  -872  -804  -720  -600  -462  -363  -317  -282  -240  -229  -318  -537  -779  -877  -814  -680  -520  -384  -316  -299  -301  -326  -378  -443  -497  -512  -442  -297  -163  -92  -70  -67  -91  -187  -386  -622  -745  -674  -490  -350  -322  -355  -405  -520  -746  -1063  -1483  -1915  -1936  -1107  777  3650  7008  10053  11953  12043  10165  6848  3087  -152  -2170  -2800  -2590  -2121  -1666  -1428  -1408  -1424  -1396  -1352  -1310  -1265  -1214  -1171  -1143  -1124  -1097  -1056  -1011  -975  -951  -930  -906  -853  -733  -561  -392  -238  -93  12  54  50  35  49  141  351  611  745  635  317  -51  -286  -312  -201  -72  34  157  293  394  432  407  335  222  74  -70  -192  -315  -461  -617  -768  -903  -1046  -1233  -1423  -1548  -1571  -1493  -1372  -1277  -1235  -1231  -1226  -1147  -947  -688  -487  -376  -332  -349  -435  -559  -650  -641  -515  -336  -198  -126  -95  -91  -136  -266  -482  -683  -742  -670  -551  -426  -332  -283  -250  -222  -211  -214  -212  -185  -140  -124  -171  -256  -349  -433  -487  -498  -482  -460  -447  -458  -506  -573  -630  -672  -698  -709  -714  -726  -740  -743  -744  -783  -896  -1092  -1411  -1736  -1628  -680  1178  3730  6473  8833  10344  10626  9457  6944  3670  534  -1668  -2606  -2547  -2146  -1991  -2130  -2185  -1978  -1630  -1249  -878  -573  -415  -437  -578  -741  -846  -866  -822  -740  -642  -551  -499  -501  -547  -608  -647  -602  -429  -187  18  169  275  328  342  347  364  402  456  510  563  641  767  950  1169  1401  1551  1434  1067  717  516  364  195  68  26  40  72  89  38  -123  -348  -517  -566  -534  -483  -441  -402  -368  -356  -362  -376  -383  -372  -338  -295  -259  -254  -314  -431  -543  -606  -621  -603  -574  -584  -729  -1031  -1244  -1022  -405  199  545  690  745  728  605  368  83  -157  -331  -455  -540  -563  -476  -310  -117  107  303  390  394  384  389  394  356  251  100  -68  -202  -229  -203  -240  -314  -349  -365  -407  -458  -440  -296  -174  -356  -718  -657  297  2221  4823  7521  9671  10729  10372  8547  5581  2304  -313  -1737  -2118  -2008  -1860  -1826  -1779  -1572  -1292  -1069  -893  -744  -674  -692  -754  -831  -892  -892  -819  -711  -632  -619  -670  -779  -942  -1090  -1086  -907  -684  -538  -491  -496  -467  -361  -269  -256  -229  -137  -29  68  126  148  188  249  301  359  432  482  449  306  97  -113  -334  -571  -760  -861  -910  -959  -1017  -1061  -1094  -1155  -1250  -1338  -1395  -1441  -1480  -1494  -1481  -1450  -1413  -1373  -1337  -1315  -1307  -1306  -1304  -1287  -1227  -1104  -948  -816  -711  -609  -549  -560  -603  -669  -741  -744  -682  -636  -632  -634  -591  -491  -417  -464  -609  -775  -909  -928  -814  -685  -614  -540  -389  -191  -47  1  -3  -14  -19  -34  -75  -140  -224  -334  -478  -650  -776  -712  -456  -191  -48  -32  -151  -418  -787  -1255  -1749  -1931  -1446  -75  2254  5219  8180  10450  11360  10520  8152  5005  1915  -463  -1836  -2369  -2394  -2137  -1714  -1209  -794  -607  -613  -739  -937  -1101  -1112  -992  -837  -685  -575  -563  -658  -798  -887  -856  -722  -572  -446  -299  -123  42  166  260  360  457  524  583  673  773  810  768  708  675  663  663  704  818  972  1089  1128  1101  1026  912  749  559  410  297  149  -71  -382  -727  -965  -1041  -1032  -1013  -1008  -1005  -994  -972  -899  -744  -599  -556  -563  -563  -554  -528  -490  -436  -333  -194  -94  -109  -258  -481  -700  -896  -1044  -1061  -933  -752  -595  -479  -399  -356  -352  -390  -480  -613  -698  -626  -436  -221  3  186  248  197  105  38  38  120  275  463  616  672  640  542  332  -28  -426  -712  -884  -1013  -1094  -1081  -961  -788  -642  -536  -440  -421  -638  -1107  -1666  -2019  -1691  -299  2177  5366  8556  10910  11727  10742  8240  4871  1496  -1083  -2516  -2929  -2602  -1883  -1288  -1115  -1162  -1187  -1192  -1240  -1324  -1388  -1390  -1327  -1237  -1172  -1148  -1125  -1049  -894  -679  -461  -305  -234  -225  -241  -256  -270  -294  -339  -405  -456  -391  -111  296  620  773  816  794  713  578  416  271  186  162  169  181  185  165  110  33  -38  -101  -182  -272  -329  -330  -309  -329  -441  -638  -843  -962  -950  -859  -750  -635  -544  -505  -474  -390  -266  -180  -195  -296  -412  -511  -625  -752  -853  -896  -886  -864  -866  -887  -909  -906  -831  -667  -476  -304  -130  5  -3  -202  -491  -698  -716  -565  -349  -194  -138  -140  -153  -161  -173  -197  -232  -261  -272  -268  -262  -279  -336  -402  -422  -401  -391  -416  -469  -570  -739  -896  -896  -708  -440  -204  -84  -214  -675  -1260  -1625  -1514  -707  915  3331  6296  9164  11165  11761  10688  8063  4567  1172  -1447  -2994  -3412  -3029  -2379  -1829  -1513  -1400  -1386  -1386  -1341  -1215  -1047  -931  -916  -967  -1023  -1057  -1086  -1118  -1144  -1160  -1160  -1124  -1024  -865  -690  -531  -400  -309  -269  -260  -247  -209  -154  -92  -24  39  55  13  -41  -76  -88  -54  65  277  533  761  888  857  663  397  193  68  -54  -179  -218  -168  -130  -168  -258  -379  -556  -780  -973  -1096  -1177  -1227  -1209  -1077  -832  -544  -340  -331  -479  -634  -705  -721  -733  -755  -780  -788  -775  -764  -782  -823  -862  -872  -817  -670  -479  -336  -269  -231  -192  -147  -91  -32  7  19  23  42  72  73  -12  -176  -277  -216  -90  -25  -21  -29  -31  -43  -89  -174  -274  -353  -370  -297  -156  6  157  264  289  174  -154  -671  -1180  -1525  -1720  -1675  -1279  -575  605  2573  5279  8257  10806  12143  11671  9385  5913  2191  -825  -2518  -2859  -2366  -1688  -1182  -963  -1001  -1136  -1248  -1307  -1302  -1218  -1074  -923  -825  -796  -807  -828  -850  -865  -858  -823  -773  -735  -719  -717  -720  -723  -716  -679  -587  -425  -212  2  180  312  407  437  376  272  188  128  59  -32  -107  -122  -82  -24  11  17  23  69  177  327  448  458  324  42  -334  -673  -895  -1022  -1122  -1234  -1301  -1251  -1106  -951  -847  -782  -702  -574  -428  -327  -311  -380  -532  -756  -928  -855  -556  -265  -117  -86  -124  -199  -262  -262  -210  -167  -148  -101  -5  91  140  140  149  208  278  315  361  484  661  776  732  550  359  216  66  -62  -38  188  513  748  756  506  92  -298  -545  -676  -729  -682  -549  -411  -336  -341  -414  -539  -721  -1020  -1447  -1814  -1900  -1541  -458  1552  4373  7644  10712  12634  12635  10636  7209  3278  -126  -2300  -3060  -2674  -1790  -1082  -917  -1236  -1662  -1911  -1967  -1874  -1636  -1320  -1071  -957  -938  -951  -965  -975  -981  -969  -922  -846  -766  -703  -661  -637  -625  -627  -667  -758  -846  -843  -733  -583  -456  -369  -310  -239  -105  82  261  390  477  532  556  556  523  451  375  332  314  283  193  39  -133  -330  -618  -967  -1228  -1327  -1318  -1270  -1207  -1109  -930  -695  -505  -422  -422  -469  -549  -657  -770  -852  -894  -909  -914  -934  -999  -1118  -1258  -1366  -1350  -1097  -675  -326  -166  -133  -160  -231  -338  -461  -566  -625  -623  -562  -465  -367  -298  -266  -265  -284  -320  -361  -388  -397  -401  -408  -405  -352  -234  -112  -61  -86  -166  -322  -576  -865  -1059  -1079  -938  -718  -511  -368  -286  -241  -226  -235  -294  -555  -1132  -1840  -2212  -1802  -427  1966  5236  8780  11648  12860  11861  8916  5016  1415  -1025  -2143  -2234  -1812  -1385  -1214  -1274  -1416  -1549  -1634  -1628  -1491  -1225  -893  -606  -463  -460  -520  -575  -565  -461  -278  -64  114  210  231  223  213  209  205  201  193  166  106  40  17  54  134  244  388  542  648  682  670  636  598  580  619  722  810  762  559  301  93  -34  -109  -180  -290  -439  -560  -587  -525  -434  -378  -392  -445  -486  -542  -666  -795  -837  -790  -710  -646  -617  -614  -619  -623  -617  -591  -538  -467  -400  -336  -270  -226  -222  -248  -290  -321  -287  -154  30  151  130  0  -121  -170  -197  -236  -259  -251  -229  -213  -208  -205  -198  -191  -191  -192  -158  -78  -33  -106  -278  -490  -691  -828  -891  -912  -920  -939  -989  -1060  -1100  -1047  -869  -616  -450  -582  -1072  -1625  -1791  -1226  292  2719  5690  8647  10849  11524  10305  7538  4010  592  -1917  -3187  -3425  -3020  -2363  -1763  -1395  -1279  -1324  -1419  -1487  -1503  -1480  -1416  -1270  -1051  -874  -865  -1043  -1305  -1486  -1486  -1316  -1060  -781  -571  -588  -834  -1088  -1201  -1214  -1204  -1174  -1032  -693  -247  105  298  395  439  447  476  579  736  846  791  525  153  -141  -302  -395  -463  -495  -490  -475  -463  -433  -370  -298  -239  -191  -158  -143  -163  -250  -401  -579  -745  -902  -1080  -1224  -1220  -1018  -694  -412  -297  -363  -496  -562  -557  -529  -441  -227  58  267  340  348  354  350  323  304  334  399  450  464  457  453  462  486  517  550  581  616  653  677  683  694  732  790  838  840  773  618  370  83  -144  -292  -407  -507  -575  -584  -490  -265  32  254  242  -116  -807  -1557  -1844  -1243  300  2656  5526  8355  10574  11742  11477  9572  6295  2450  -934  -2976  -3377  -2579  -1436  -791  -901  -1320  -1600  -1693  -1662  -1494  -1229  -998  -895  -906  -982  -1111  -1298  -1495  -1630  -1669  -1579  -1328  -994  -746  -651  -644  -639  -599  -534  -466  -372  -216  -32  92  108  45  -17  -6  83  197  290  347  362  301  124  -136  -378  -528  -565  -494  -392  -390  -521  -733  -987  -1234  -1388  -1409  -1314  -1127  -896  -698  -577  -522  -510  -527  -573  -635  -687  -726  -769  -815  -844  -840  -816  -801  -817  -851  -876  -883  -882  -887  -894  -890  -859  -776  -611  -401  -255  -241  -330  -446  -521  -539  -528  -520  -524  -515  -447  -305  -145  -8  106  154  114  29  -61  -123  -147  -199  -352  -567  -724  -760  -716  -660  -618  -581  -545  -508  -441  -322  -206  -203  -395  -839  -1402  -1622  -957  886  3749  7053  10020  11828  11929  10324  7529  4321  1353  -951  -2385  -2933  -2758  -2279  -1851  -1493  -1210  -1089  -1108  -1191  -1246  -1170  -1018  -1027  -1273  -1566  -1734  -1757  -1657  -1428  -1060  -626  -274  -107  -92  -141  -210  -273  -311  -327  -336  -353  -379  -400  -382  -262  9  362  674  927  1146  1291  1340  1333  1313  1289  1260  1229  1200  1172  1135  1067  972  852  673  435  220  109  88  80  27  -57  -124  -153  -169  -198  -242  -308  -410  -527  -606  -636  -668  -746  -848  -953  -1046  -1074  -1002  -883  -785  -738  -737  -758  -766  -699  -504  -234  -38  -12  -138  -319  -438  -434  -336  -222  -125  -27  54  87  83  68  44  11  -20  -45  -74  -117  -183  -274  -369  -442  -481  -501  -524  -565  -611  -636  -618  -579  -592  -749  -1065  -1467  -1891  -2344  -2668  -2371  -1056  1209  4084  7227  10132  12040  12325  10720  7454  3417  -213  -2571  -3426  -3121  -2311  -1697  -1581  -1755  -1941  -2031  -1996  -1830  -1545  -1206  -941  -863  -946  -1057  -1113  -1109  -1072  -1026  -952  -816  -642  -497  -400  -334  -299  -294  -287  -257  -258  -321  -353  -270  -104  76  236  356  411  357  164  -103  -301  -331  -187  69  326  479  506  450  341  171  -59  -257  -321  -303  -318  -385  -481  -578  -642  -683  -733  -817  -933  -1047  -1119  -1141  -1109  -1014  -877  -745  -619  -467  -302  -186  -153  -196  -305  -455  -596  -689  -732  -733  -704  -640  -523  -370  -238  -148  -66  42  144  161  89  -21  -155  -267  -301  -261  -198  -159  -153  -144  -86  61  309  545  561  338  87  -35  -48  -29  -54  -164  -322  -430  -425  -329  -227  -182  -211  -357  -687  -1248  -1852  -1948  -975  1204  4263  7606  10440  11983  11860  10092  7072  3606  526  -1648  -2724  -2829  -2409  -2008  -1850  -1826  -1808  -1754  -1685  -1637  -1614  -1596  -1556  -1482  -1377  -1261  -1137  -984  -813  -684  -603  -513  -396  -302  -263  -259  -267  -284  -304  -293  -219  -105  -10  39  66  125  260  438  558  559  473  416  476  640  845  1007  1026  908  741  547  306  66  -98  -173  -183  -160  -131  -128  -187  -339  -566  -800  -981  -1076  -1083  -1042  -991  -933  -858  -764  -664  -588  -541  -485  -393  -285  -208  -179  -181  -206  -263  -336  -391  -420  -448  -503  -584  -661  -693  -673  -626  -580  -532  -467  -406  -389  -413  -451  -478  -478  -454  -421  -379  -325  -255  -159  -24  97  85  -104  -384  -636  -788  -820  -767  -690  -620  -545  -477  -449  -470  -523  -578  -687  -1071  -1822  -2471  -2361  -1354  353  2651  5447  8443  10991  12253  11585  8981  5237  1498  -1334  -2874  -3207  -2737  -1994  -1371  -1089  -1179  -1407  -1540  -1540  -1423  -1174  -859  -614  -507  -504  -563  -662  -746  -751  -689  -571  -403  -303  -351  -460  -539  -571  -574  -574  -592  -628  -659  -644  -553  -385  -125  210  507  687  778  827  826  729  559  390  248  149  110  86  21  -72  -138  -154  -158  -216  -370  -612  -870  -1044  -1117  -1145  -1150  -1085  -900  -653  -462  -381  -391  -481  -659  -907  -1136  -1238  -1176  -985  -731  -485  -314  -235  -219  -237  -265  -266  -217  -145  -74  6  87  145  182  201  207  210  218  226  231  243  281  346  415  480  558  639  700  737  740  685  552  365  189  72  -8  -115  -250  -354  -394  -394  -387  -391  -404  -464  -726  -1239  -1676  -1622  -799  1014  3792  7118  10247  12149  11998  9799  6353  2763  41  -1398  -1925  -2088  -2127  -2014  -1706  -1387  -1259  -1289  -1360  -1417  -1441  -1372  -1128  -726  -328  -78  29  42  -92  -457  -881  -1027  -849  -568  -309  -123  -47  -53  -84  -93  -37  82  209  316  426  522  562  558  545  543  544  518  439  331  252  225  226  223  211  185  130  30  -111  -281  -458  -608  -696  -720  -716  -724  -776  -902  -1101  -1317  -1457  -1466  -1361  -1216  -1108  -1056  -1008  -930  -861  -854  -927  -1054  -1136  -1092  -990  -930  -921  -923  -918  -899  -859  -793  -714  -645  -580  -506  -440  -392  -337  -260  -232  -356  -591  -775  -837  -837  -834  -808  -682  -412  -114  26  -7  -113  -235  -330  -360  -349  -373  -499  -716  -932  -1080  -1164  -1208  -1228  -1225  -1182  -1095  -1030  -1144  -1492  -1778  -1517  -380  1721  4625  7864  10670  12195  11929  9916  6699  3132  115  -1794  -2565  -2471  -1925  -1349  -997  -932  -1028  -1108  -1122  -1113  -1104  -1085  -1040  -980  -937  -918  -904  -868  -789  -669  -524  -363  -212  -88  -29  -131  -387  -635  -756  -759  -670  -496  -282  -97  44  172  284  357  408  468  522  521  441  323  240  249  354  512  683  812  786  509  21  -499  -840  -932  -846  -641  -356  -117  -88  -263  -465  -565  -559  -471  -299  -88  61  85  -4  -158  -316  -433  -490  -502  -507  -534  -578  -611  -582  -458  -288  -122  14  32  -118  -343  -524  -612  -630  -631  -643  -647  -610  -544  -505  -515  -534  -521  -474  -424  -398  -372  -291  -146  18  157  257  317  271  65  -253  -587  -842  -971  -976  -885  -732  -567  -467  -485  -625  -863  -1159  -1509  -1959  -2332  -2073  -802  1361  4198  7347  10120  11763  11723  9906  6777  3141  -73  -2140  -2914  -2815  -2339  -1820  -1510  -1462  -1505  -1503  -1457  -1414  -1388  -1342  -1235  -1088  -977  -937  -940  -950  -955  -957  -960  -964  -972  -983  -980  -919  -754  -476  -167  36  70  -25  -161  -252  -268  -224  -160  -109  -79  -41  50  206  368  445  404  293  158  33  -45  -69  -73  -90  -119  -138  -153  -194  -285  -410  -538  -658  -778  -908  -1030  -1104  -1126  -1131  -1151  -1185  -1211  -1196  -1106  -973  -869  -815  -781  -710  -570  -401  -284  -239  -227  -233  -304  -483  -700  -817  -808  -739  -649  -556  -479  -428  -390  -338  -261  -175  -103  -36  47  120  106  -38  -261  -446  -499  -420  -296  -179  -46  101  224  307  382  494  613  620  430  125  -101  -145  -54  68  161  175  43  -216  -545  -1014  -1680  -2301  -2340  -1242  1177  4539  8168  11312  13114  13022  11112  7897  4216  972  -1234  -2252  -2350  -2005  -1709  -1684  -1755  -1728  -1602  -1420  -1202  -974  -777  -653  -621  -648  -692  -740  -789  -836  -881  -901  -849  -710  -544  -403  -279  -183  -142  -138  -137  -133  -132  -127  -88  0  104  188  232  207  122  12  -113  -216  -252  -243  -229  -223  -220  -212  -196  -189  -232  -363  -558  -766  -976  -1144  -1187  -1121  -1026  -947  -926  -979  -1049  -1082  -1080  -1072  -1105  -1202  -1343  -1478  -1503  -1293  -909  -572  -414  -456  -628  -783  -843  -840  -826  -820  -816  -808  -805  -813  -823  -828  -827  -817  -786  -731  -672  -620  -561  -508  -485  -486  -498  -501  -475  -405  -301  -155  30  176  170  -14  -280  -465  -480  -367  -226  -112  -49  -94  -244  -385  -443  -443  -423  -394  -372  -434  -672  -983  -1113  -991  -698  -402  -421  -782  -951  -300  1495  4394  7907  11107  13029  13032  10955  7351  3311  -89  -2178  -2823  -2416  -1674  -1141  -931  -972  -1120  -1221  -1248  -1247  -1234  -1186  -1066  -867  -647  -503  -477  -525  -589  -636  -653  -612  -515  -408  -324  -269  -243  -227  -170  -49  99  223  296  327  353  435  591  712  686  563  473  457  471  452  356  204  77  24  19  6  -43  -112  -165  -152  -72  -10  -37  -128  -173  -114  -44  -104  -295  -467  -502  -444  -398  -390  -402  -414  -415  -404  -389  -378  -375  -376  -374  -364  -351  -341  -338  -340  -338  -328  -314  -315  -358  -438  -514  -595  -692  -709  -597  -447  -333  -273  -283  -369  -494  -598  -646  -618  -464  -149  236  504  555  430  227  35  -102  -188  -231  -240  -261  -347  -477  -608  -722  -791  -769  -644  -469  -320  -231  -233  -444  -944  -1578  -2101  -2274  -1776  -476  1484  3982  6887  9742  11671  11887  10169  6874  2956  -378  -2361  -2969  -2719  -2238  -1934  -1827  -1702  -1480  -1283  -1221  -1267  -1347  -1435  -1507  -1508  -1425  -1303  -1199  -1116  -1017  -890  -768  -699  -708  -764  -795  -763  -703  -667  -649  -617  -562  -484  -368  -211  -39  122  260  360  400  347  196  10  -97  -78  -1  53  73  78  78  52  -27  -146  -258  -331  -336  -290  -300  -490  -864  -1263  -1505  -1541  -1455  -1356  -1283  -1208  -1106  -973  -829  -717  -663  -645  -635  -622  -600  -553  -465  -351  -241  -132  -25  36  10  -75  -123  -74  3  3  -78  -143  -109  11  180  361  501  577  610  623  619  590  536  477  436  405  336  189  9  -90  -72  -2  51  73  74  61  33  -17  -83  -137  -176  -234  -336  -441  -473  -448  -457  -578  -872  -1335  -1770  -1847  -1368  -230  1708  4317  7162  9794  11620  11954  10556  7834  4431  1039  -1555  -2901  -3107  -2591  -1935  -1576  -1509  -1504  -1492  -1526  -1555  -1487  -1324  -1145  -1031  -1000  -1013  -1032  -1043  -1030  -977  -890  -801  -741  -718  -710  -673  -573  -435  -319  -245  -174  -75  49  188  318  398  420  413  403  390  368  333  295  254  182  36  -165  -336  -411  -388  -311  -232  -185  -182  -236  -350  -491  -607  -678  -720  -740  -744  -743  -742  -741  -734  -719  -707  -716  -768  -851  -926  -1026  -1193  -1338  -1379  -1331  -1227  -1090  -934  -766  -625  -542  -515  -515  -501  -440  -345  -270  -270  -340  -423  -496  -593  -697  -762  -784  -764  -678  -529  -381  -239  -44  161  295  362  397  417  432  442  442  435  441  477  524  540  514  454  348  200  62  -20  -64  -112  -189  -306  -427  -488  -492  -594  -975  -1496  -1622  -800  1204  4218  7631  10451  11792  11408  9627  7067  4299  1669  -524  -2039  -2773  -2819  -2515  -2119  -1682  -1271  -1001  -910  -927  -956  -953  -934  -947  -1048  -1222  -1350  -1372  -1360  -1333  -1266  -1182  -1093  -981  -832  -668  -546  -478  -415  -330  -245  -189  -164  -158  -170  -195  -204  -116  130  440  620  619  540  467  422  408  416  431  431  368  222  51  -92  -187  -169  -37  105  182  165  68  -94  -372  -776  -1167  -1380  -1388  -1260  -1094  -981  -952  -978  -1029  -1088  -1134  -1142  -1103  -1018  -868  -645  -418  -275  -245  -388  -722  -1051  -1193  -1185  -1138  -1110  -1099  -1042  -886  -666  -483  -385  -322  -227  -95  18  85  132  183  208  176  120  81  69  70  73  71  29  -116  -370  -522  -313  141  478  562  484  347  212  51  -190  -499  -828  -1167  -1522  -1906  -2179  -1972  -948  1021  3851  7185  10328  12300  12398  10596  7384  3659  474  -1534  -2440  -2682  -2599  -2419  -2206  -1869  -1480  -1241  -1201  -1267  -1345  -1373  -1296  -1117  -920  -778  -708  -699  -751  -900  -1173  -1433  -1449  -1211  -923  -720  -599  -520  -456  -413  -401  -396  -368  -297  -179  -17  167  332  430  454  439  416  396  381  378  413  498  578  585  518  389  181  -47  -188  -226  -221  -217  -228  -274  -377  -523  -669  -799  -910  -971  -967  -931  -885  -787  -588  -308  -42  117  115  -43  -299  -553  -711  -760  -755  -746  -748  -755  -753  -740  -720  -680  -573  -354  -31  292  470  444  291  121  -36  -207  -349  -409  -410  -401  -401  -411  -413  -351  -167  114  364  476  449  345  213  92  17  7  35  73  87  36  -65  -179  -303  -414  -522  -738  -1155  -1671  -2079  -2223  -1959  -1132  420  2825  5951  9289  11938  12897  11724  8816  5173  1807  -694  -2150  -2731  -2791  -2604  -2330  -2037  -1762  -1565  -1520  -1628  -1723  -1651  -1441  -1214  -1061  -987  -951  -928  -910  -897  -892  -882  -858  -829  -815  -813  -776  -661  -488  -320  -183  -84  -40  -42  -57  -76  -102  -109  -9  261  576  711  639  484  323  200  138  97  19  -93  -193  -251  -286  -333  -402  -458  -453  -367  -241  -162  -214  -402  -641  -890  -1166  -1393  -1473  -1428  -1344  -1269  -1185  -1062  -901  -752  -669  -652  -628  -522  -342  -171  -112  -188  -281  -268  -173  -82  -23  8  27  47  62  41  -24  -108  -152  -130  -60  31  124  179  151  43  -94  -245  -422  -560  -562  -414  -210  -69  -26  -27  -5  68  200  336  391  349  245  91  -73  -188  -254  -288  -274  -253  -400  -820  -1349  -1602  -1106  492  3124  6242  9176  11262  11757  10296  7252  3490  50  -2212  -2990  -2666  -1992  -1476  -1278  -1364  -1523  -1589  -1585  -1552  -1464  -1296  -1106  -982  -946  -953  -964  -969  -967  -956  -934  -907  -867  -798  -711  -620  -482  -256  -38  27  -23  -42  -1  26  22  46  197  512  842  972  887  750  650  555  429  300  181  48  -67  -112  -108  -127  -212  -330  -424  -520  -698  -936  -1120  -1208  -1256  -1316  -1385  -1432  -1448  -1450  -1451  -1442  -1397  -1300  -1159  -1007  -892  -831  -820  -854  -925  -1005  -1044  -984  -808  -589  -408  -274  -184  -147  -129  -91  -37  5  27  45  62  36  -64  -197  -329  -471  -585  -575  -405  -161  16  65  23  -56  -141  -216  -275  -321  -355  -383  -422  -476  -534  -582  -623  -675  -729  -746  -690  -548  -408  -503  -939  -1423  -1507  -873  671  3082  6006  8792  10610  10844  9339  6485  3128  168  -1853  -2878  -3103  -2837  -2425  -2055  -1811  -1763  -1890  -2088  -2235  -2211  -1914  -1360  -747  -314  -138  -132  -167  -156  -80  23  104  142  134  94  52  57  161  336  482  553  585  633  735  872  987  1047  1054  1028  1015  1048  1095  1085  997  873  782  768  815  864  831  666  428  221  65  -41  -96  -141  -221  -321  -392  -428  -462  -511  -564  -606  -611  -558  -465  -367  -302  -308  -357  -427  -549  -678  -718  -647  -531  -450  -430  -440  -429  -350  -200  -70  -78  -209  -359  -478  -551  -546  -444  -274  -91  53  126  96  -47  -243  -384  -405  -314  -140  110  362  472  417  286  127  -36  -184  -310  -412  -468  -443  -353  -263  -185  -78  24  8  -201  -575  -984  -1295  -1472  -1372  -698  703  2813  5505  8393  10737  11712  10899  8516  5226  1816  -972  -2672  -3363  -3425  -3199  -2902  -2591  -2268  -1943  -1602  -1266  -1026  -946  -976  -1021  -1059  -1097  -1122  -1129  -1124  -1106  -1073  -1035  -995  -912  -751  -588  -535  -559  -556  -533  -527  -509  -440  -336  -244  -170  -86  25  166  334  510  637  682  660  608  565  547  526  473  390  285  144  -17  -137  -179  -170  -156  -188  -301  -459  -569  -572  -489  -383  -298  -254  -297  -426  -564  -680  -808  -985  -1186  -1266  -1125  -895  -722  -582  -428  -293  -241  -293  -399  -503  -589  -634  -605  -507  -394  -322  -287  -227  -128  -73  -107  -131  -53  91  218  280  290  310  393  520  606  563  371  125  -57  -162  -247  -360  -516  -694  -836  -859  -756  -612  -502  -433  -380  -332  -382  -678  -1127  -1398  -1259  -515  1071  3571  6660  9623  11657  12103  10736  7963  4484  1052  -1567  -2881  -2993  -2475  -1873  -1536  -1589  -1793  -1878  -1826  -1690  -1483  -1279  -1193  -1232  -1320  -1403  -1454  -1443  -1363  -1226  -1060  -908  -807  -758  -732  -717  -716  -723  -724  -694  -610  -498  -419  -394  -380  -328  -232  -116  7  121  191  209  211  237  295  360  406  425  431  438  443  407  283  73  -169  -396  -588  -709  -724  -656  -567  -496  -445  -410  -398  -443  -558  -679  -712  -661  -573  -463  -352  -273  -224  -197  -216  -317  -463  -557  -572  -556  -541  -525  -505  -483  -470  -473  -486  -503  -524  -538  -524  -464  -366  -265  -187  -128  -54  91  345  619  736  665  539  424  266  14  -277  -509  -666  -764  -763  -626  -416  -275  -295  -436  -562  -599  -598  -596  -617  -802  -1253  -1686  -1478  -91  2590  6028  9244  11391  11982  10894  8412  5159  1857  -849  -2426  -2791  -2455  -2001  -1730  -1577  -1323  -993  -771  -691  -680  -698  -743  -814  -889  -938  -954  -956  -953  -931  -875  -778  -629  -442  -291  -230  -229  -240  -241  -230  -212  -201  -200  -190  -135  -2  169  294  335  330  317  309  301  284  249  205  176  169  159  119  49  -27  -84  -108  -118  -155  -230  -295  -328  -399  -553  -713  -800  -813  -798  -781  -768  -759  -751  -755  -792  -874  -995  -1122  -1200  -1185  -1076  -884  -639  -436  -333  -301  -292  -294  -321  -366  -416  -480  -557  -635  -701  -753  -785  -764  -672  -534  -404  -324  -303  -326  -385  -479  -584  -658  -684  -682  -672  -666  -668  -675  -681  -681  -674  -667  -681  -741  -847  -952  -1009  -1013  -985  -960  -994  -1198  -1685  -2351  -2764  -2338  -675  2123  5503  8717  11056  11982  11241  9022  5868  2492  -385  -2336  -3283  -3372  -2811  -1880  -1107  -875  -997  -1103  -1066  -950  -846  -764  -652  -505  -393  -351  -353  -363  -375  -398  -429  -455  -472  -484  -465  -371  -189  10  142  189  190  164  88  -46  -158  -141  -4  201  454  682  818  883  919  912  806  607  384  129  -199  -467  -449  -162  157  333  303  130  -50  -211  -424  -655  -776  -758  -668  -554  -467  -473  -594  -766  -893  -939  -935  -904  -843  -765  -707  -681  -675  -673  -671  -678  -701  -741  -782  -786  -734  -637  -511  -364  -210  -59  84  203  287  321  256  92  -71  -166  -202  -207  -171  -46  190  474  678  702  532  271  98  102  199  212  77  -79  -153  -205  -334  -526  -675  -729  -714  -657  -602  -689  -1081  -1706  -2134  -1784  -323  2256  5698  9230  11765  12546  11317  8348  4484  881  -1561  -2576  -2382  -1629  -1088  -971  -1020  -1030  -963  -871  -799  -749  -713  -697  -714  -744  -665  -326  233  776  1077  1047  788  519  354  272  239  232  229  218  224  298  485  767  1045  1217  1268  1259  1242  1222  1168  1058  897  678  375  47  -189  -304  -340  -319  -264  -217  -202  -207  -210  -202  -200  -250  -390  -578  -719  -789  -853  -965  -1096  -1181  -1221  -1297  -1465  -1669  -1799  -1807  -1732  -1644  -1571  -1499  -1440  -1415  -1403  -1355  -1247  -1093  -940  -845  -820  -832  -842  -822  -751  -623  -477  -372  -327  -316  -310  -296  -280  -277  -289  -305  -314  -314  -323  -360  -424  -486  -520  -511  -447  -315  -157  -47  -22  -58  -123  -224  -399  -621  -796  -873  -891  -918  -1006  -1183  -1466  -1803  -1910  -1404  -235  1446  3505  5669  7778  9667  10619  9891  7525  4219  928  -1405  -2401  -2483  -2278  -2117  -2026  -1851  -1557  -1301  -1138  -988  -821  -701  -673  -716  -783  -827  -814  -737  -613  -458  -287  -164  -164  -313  -557  -780  -869  -784  -612  -472  -378  -250  -29  245  485  653  727  681  524  291  42  -130  -159  -92  -1  101  186  169  3  -246  -460  -576  -605  -558  -434  -270  -150  -143  -277  -519  -773  -941  -1007  -1014  -1010  -992  -927  -803  -666  -581  -562  -579  -593  -569  -484  -369  -286  -253  -232  -182  -108  -57  -77  -187  -339  -456  -508  -528  -534  -501  -388  -224  -101  -56  -54  -60  -79  -133  -211  -265  -272  -258  -247  -221  -150  -48  21  6  -97  -233  -337  -388  -394  -368  -332  -312  -341  -426  -538  -646  -763  -917  -1085  -1216  -1366  -1684  -2102  -2108  -1049  1306  4539  7877  10563  11898  11476  9418  6230  2695  -343  -2325  -3118  -2980  -2395  -1846  -1562  -1441  -1327  -1178  -1023  -911  -851  -822  -824  -872  -978  -1116  -1181  -1046  -707  -310  -12  124  156  211  384  640  832  849  695  471  315  316  468  677  829  897  936  962  939  852  744  662  631  639  664  698  724  698  583  397  203  49  -61  -146  -209  -241  -247  -257  -293  -348  -403  -461  -537  -617  -676  -716  -758  -795  -810  -811  -825  -861  -906  -951  -1007  -1052  -1034  -924  -765  -642  -590  -578  -572  -582  -665  -858  -1068  -1141  -1059  -942  -869  -843  -842  -834  -791  -708  -582  -403  -197  -31  63  98  96  68  8  -104  -250  -365  -414  -422  -417  -410  -407  -424  -487  -606  -738  -820  -845  -849  -841  -813  -778  -816  -1074  -1548  -1812  -1233  568  3487  6864  9760  11433  11500  9948  7177  3837  646  -1760  -2967  -2977  -2267  -1462  -1080  -1267  -1655  -1825  -1685  -1327  -924  -662  -604  -666  -738  -790  -842  -903  -948  -960  -945  -910  -848  -753  -655  -566  -465  -376  -344  -363  -399  -421  -433  -455  -495  -517  -491  -439  -391  -332  -241  -134  -61  -46  -72  -110  -132  -132  -119  -127  -214  -419  -663  -779  -722  -602  -517  -487  -494  -515  -531  -540  -558  -603  -671  -731  -766  -803  -839  -830  -747  -620  -485  -339  -181  -56  10  41  51  9  -143  -397  -646  -802  -867  -863  -748  -477  -128  137  270  338  383  373  286  167  57  -49  -144  -196  -194  -142  -68  -10  22  53  123  227  282  201  20  -128  -185  -197  -213  -220  -204  -203  -251  -328  -389  -402  -382  -439  -754  -1331  -1859  -1842  -825  1320  4300  7580  10514  12375  12562  10913  7782  4007  674  -1507  -2444  -2438  -2014  -1547  -1143  -901  -854  -889  -915  -927  -952  -994  -1001  -918  -779  -646  -529  -447  -439  -515  -626  -705  -722  -690  -626  -516  -321  -72  125  206  174  59  -86  -194  -238  -226  -146  19  203  291  270  200  110  15  -66  -122  -163  -213  -273  -340  -427  -532  -627  -684  -705  -687  -653  -696  -850  -1030  -1157  -1234  -1281  -1317  -1354  -1396  -1414  -1338  -1123  -877  -766  -792  -839  -854  -858  -894  -992  -1124  -1216  -1212  -1107  -957  -834  -765  -730  -705  -671  -640  -626  -610  -567  -506  -462  -459  -490  -526  -551  -544  -488  -403  -312  -208  -117  -79  -86  -104  -115  -117  -127  -160  -226  -340  -492  -636  -739  -805  -848  -867  -838  -772  -695  -621  -617  -817  -1298  -1903  -2261  -1976  -801  1261  4063  7271  10213  12132  12483  11022  7951  4060  501  -1870  -2828  -2651  -1936  -1279  -991  -1030  -1200  -1355  -1392  -1257  -1006  -738  -534  -449  -474  -542  -632  -755  -839  -827  -748  -641  -550  -514  -523  -538  -518  -426  -276  -124  -23  13  44  154  332  514  688  815  808  641  402  235  197  234  240  84  -268  -586  -563  -282  -46  71  132  122  13  -142  -260  -307  -304  -251  -138  -16  12  -79  -229  -399  -620  -893  -1126  -1268  -1351  -1382  -1308  -1086  -785  -547  -441  -412  -374  -275  -112  59  169  201  200  205  223  235  208  128  31  -62  -163  -251  -286  -283  -270  -262  -260  -254  -235  -208  -189  -184  -189  -197  -208  -227  -238  -198  -70  105  237  283  270  218  136  54  6  -62  -287  -709  -1143  -1401  -1516  -1470  -944  392  2534  5139  7763  9867  10812  10213  8118  4997  1718  -831  -2244  -2720  -2686  -2480  -2218  -1820  -1325  -955  -796  -775  -795  -771  -661  -503  -382  -329  -317  -323  -364  -450  -529  -549  -509  -407  -259  -131  -53  14  97  166  198  202  210  250  299  311  253  123  -59  -239  -350  -364  -309  -237  -194  -185  -171  -102  27  170  242  183  12  -209  -433  -618  -745  -826  -862  -870  -919  -1075  -1291  -1449  -1495  -1481  -1482  -1557  -1711  -1858  -1874  -1741  -1534  -1291  -1000  -716  -539  -497  -525  -566  -590  -569  -488  -376  -294  -277  -310  -362  -407  -436  -466  -521  -594  -652  -674  -669  -652  -629  -600  -567  -530  -495  -463  -421  -384  -388  -457  -574  -690  -748  -714  -612  -499  -406  -333  -291  -290  -306  -318  -364  -531  -831  -1075  -1147  -1167  -989  -61  1958  4850  8019  10641  11842  11189  8903  5709  2547  85  -1416  -2046  -2144  -1999  -1756  -1541  -1359  -1097  -762  -496  -368  -323  -313  -361  -498  -679  -865  -1059  -1174  -1087  -808  -480  -272  -231  -266  -283  -313  -405  -475  -449  -377  -320  -284  -251  -192  -81  91  299  460  522  527  476  363  329  446  602  718  788  784  677  479  241  35  -85  -140  -205  -325  -467  -565  -598  -593  -581  -598  -690  -875  -1082  -1246  -1341  -1319  -1216  -1117  -1007  -867  -729  -614  -536  -490  -448  -411  -425  -521  -679  -830  -914  -918  -866  -779  -668  -574  -567  -649  -786  -962  -1100  -1087  -885  -600  -398  -334  -325  -285  -210  -153  -156  -208  -266  -309  -360  -446  -580  -736  -854  -904  -914  -914  -911  -878  -800  -724  -761  -999  -1461  -2064  -2635  -2909  -2403  -674  2140  5431  8623  11155  12304  11595  9188  5671  1970  -881  -2431  -2883  -2658  -2220  -1940  -1871  -1832  -1763  -1735  -1770  -1843  -1913  -1924  -1830  -1623  -1342  -1042  -785  -634  -592  -601  -628  -680  -765  -857  -910  -893  -795  -606  -377  -223  -215  -322  -457  -560  -593  -502  -313  -131  -6  59  75  87  154  290  446  527  449  221  -99  -439  -680  -767  -764  -750  -755  -765  -740  -650  -523  -437  -453  -555  -673  -776  -892  -1003  -1057  -1022  -895  -728  -608  -570  -576  -586  -580  -545  -481  -408  -352  -313  -273  -231  -200  -171  -141  -142  -203  -282  -338  -393  -442  -425  -316  -166  -63  -30  -12  39  130  250  390  517  612  686  734  738  690  578  374  111  -88  -151  -117  -64  -35  -22  13  87  137  96  -32  -215  -434  -697  -921  -843  -123  1514  4090  7229  10212  12192  12577  11214  8453  5111  2016  -308  -1668  -2136  -1919  -1411  -1010  -794  -682  -643  -638  -626  -606  -599  -600  -551  -392  -152  54  142  126  77  4  -124  -256  -305  -262  -168  -15  240  557  801  927  1000  1053  1046  967  853  752  702  763  974  1261  1482  1588  1637  1680  1719  1733  1694  1563  1306  933  541  275  217  346  551  696  707  612  486  368  287  319  490  715  887  955  926  846  757  672  587  521  511  588  768  1009  1167  1115  910  671  465  411  585  898  1210  1454  1622  1723  1786  1884  2073  2272  2343  2266  2102  1889  1723  1750  2036  2470  2827  2954  2848  2625  2432  2326  2278  2258  2242  2205  2131  2025  1941  1955  2056  2183  2294  2326  2259  2175  2135  2121  2080  1916  1507  997  866  1546  3307  6137  9501  12576  14619  15126  13924  11198  7524  3810  1010  -373  -452  254  1069  1589  1818  1866  1837  1821  1833  1868  1935  2022  2096  2139  2161  2168  2172  2201  2270  2353  2405  2387  2293  2206  2182  2162  2132  2124  2133  2154  2190  2234  2282  2348  2466  2667  2896  3030  2998  2864  2767  2772  2813  2824  2809  2770  2676  2486  2214  1933  1701  1547  1473  1416  1298  1117  915  700  488  338  252  179  95  18  -43  -108  -168  -200  -205  -201  -202  -220  -267  -333  -388  -412  -426  -494  -668  -901  -1080  -1178  -1256  -1343  -1408  -1456  -1563  -1788  -2065  -2251  -2310  -2364  -2542  -2816  -3054  -3192  -3301  -3479  -3722  -3948  -4113  -4232  -4336  -4471  -4660  -4858  -5016  -5194  -5505  -5948  -6399  -6766  -7082  -7390  -7637  -7778  -7890  -8094  -8405  -8769  -9197  -9673  -10104  -10496  -10961  -11478  -11857  -11919  -11538  -10583  -8930  -6721  -4629  -3278  -2435  -1412  0]
