timestamp,pid,value,device_serial,device_number,entry_time
1548831328000.0000000000,12,0E-10,A01BBE,5,1548831328000
1548831328015.6201171875,12,0E-10,A01BBE,5,1548831328000
1548831328031.2500000000,12,0E-10,A01BBE,5,1548831328000
1548831328046.8798828125,12,0E-10,A01BBE,5,1548831328000
1548831328062.5000000000,12,0E-10,A01BBE,5,1548831328000
1548831328078.1201171875,12,0E-10,A01BBE,5,1548831328000
1548831328093.7500000000,12,0E-10,A01BBE,5,1548831328000
1548831328109.3798828125,12,0E-10,A01BBE,5,1548831328000
1548831328125.0000000000,12,0E-10,A01BBE,5,1548831328000
1548831328140.6201171875,12,0E-10,A01BBE,5,1548831328000
1548831328156.2500000000,12,0E-10,A01BBE,5,1548831328000
1548831328171.8798828125,12,0.0100000000,A01BBE,5,1548831328000
1548831328187.5000000000,12,0.0100000000,A01BBE,5,1548831328000
1548831328203.1201171875,12,0E-10,A01BBE,5,1548831328000
1548831328218.7500000000,12,-0.0300000000,A01BBE,5,1548831328000
1548831328234.3798828125,12,-0.0500000000,A01BBE,5,1548831328000
1548831328250.0000000000,12,-0.0500000000,A01BBE,5,1548831328000
1548831328265.6201171875,12,0E-10,A01BBE,5,1548831328000
1548831328281.2500000000,12,0.1300000000,A01BBE,5,1548831328000
1548831328296.8798828125,12,0.3600000000,A01BBE,5,1548831328000
1548831328312.5000000000,12,0.6600000000,A01BBE,5,1548831328000
1548831328328.1201171875,12,1.0100000000,A01BBE,5,1548831328000
1548831328343.7500000000,12,1.3700000000,A01BBE,5,1548831328000
1548831328359.3798828125,12,1.7200000000,A01BBE,5,1548831328000
1548831328375.0000000000,12,2.0600000000,A01BBE,5,1548831328000
1548831328390.6201171875,12,2.4000000000,A01BBE,5,1548831328000
1548831328406.2500000000,12,2.7900000000,A01BBE,5,1548831328000
1548831328421.8798828125,12,3.2400000000,A01BBE,5,1548831328000
1548831328437.5000000000,12,3.8000000000,A01BBE,5,1548831328000
1548831328453.1201171875,12,4.4200000000,A01BBE,5,1548831328000
1548831328468.7500000000,12,5.0600000000,A01BBE,5,1548831328000
1548831328484.3798828125,12,5.6600000000,A01BBE,5,1548831328000
1548831328500.0000000000,12,6.2000000000,A01BBE,5,1548831328000
1548831328515.6201171875,12,6.6800000000,A01BBE,5,1548831328000
1548831328531.2500000000,12,7.1500000000,A01BBE,5,1548831328000
1548831328546.8798828125,12,7.6800000000,A01BBE,5,1548831328000
1548831328562.5000000000,12,8.3100000000,A01BBE,5,1548831328000
1548831328578.1201171875,12,9.1400000000,A01BBE,5,1548831328000
1548831328593.7500000000,12,10.0900000000,A01BBE,5,1548831328000
1548831328609.3798828125,12,11.0400000000,A01BBE,5,1548831328000
1548831328625.0000000000,12,11.8800000000,A01BBE,5,1548831328000
1548831328640.6201171875,12,12.5600000000,A01BBE,5,1548831328000
1548831328656.2500000000,12,13.1400000000,A01BBE,5,1548831328000
1548831328671.8798828125,12,13.7600000000,A01BBE,5,1548831328000
1548831328687.5000000000,12,14.6500000000,A01BBE,5,1548831328000
1548831328703.1201171875,12,15.9600000000,A01BBE,5,1548831328000
1548831328718.7500000000,12,17.9100000000,A01BBE,5,1548831328000
1548831328734.3798828125,12,20.3200000000,A01BBE,5,1548831328000
1548831328750.0000000000,12,22.9000000000,A01BBE,5,1548831328000
1548831328765.6201171875,12,25.3800000000,A01BBE,5,1548831328000
1548831328781.2500000000,12,27.5800000000,A01BBE,5,1548831328000
1548831328796.8798828125,12,29.5700000000,A01BBE,5,1548831328000
1548831328812.5000000000,12,31.6800000000,A01BBE,5,1548831328000
1548831328828.1201171875,12,34.3200000000,A01BBE,5,1548831328000
1548831328843.7500000000,12,37.8100000000,A01BBE,5,1548831328000
1548831328859.3798828125,12,42.5400000000,A01BBE,5,1548831328000
1548831328875.0000000000,12,48.1500000000,A01BBE,5,1548831328000
1548831328890.6201171875,12,54.1000000000,A01BBE,5,1548831328000
1548831328906.2500000000,12,59.8300000000,A01BBE,5,1548831328000
1548831328921.8798828125,12,64.9700000000,A01BBE,5,1548831328000
1548831328937.5000000000,12,69.5800000000,A01BBE,5,1548831328000
1548831328953.1201171875,12,74.1400000000,A01BBE,5,1548831328000
1548831328968.7500000000,12,79.3400000000,A01BBE,5,1548831328000
1548831328984.3798828125,12,85.7100000000,A01BBE,5,1548831328000
1548831329000.0000000000,12,93.7600000000,A01BBE,5,1548831328000
1548831329015.6201171875,12,103.0000000000,A01BBE,5,1548831328000
1548831329031.2500000000,12,112.6200000000,A01BBE,5,1548831328000
1548831329046.8798828125,12,121.7300000000,A01BBE,5,1548831328000
1548831329062.5000000000,12,129.7700000000,A01BBE,5,1548831328000
1548831329078.1201171875,12,136.7500000000,A01BBE,5,1548831328000
1548831329093.7500000000,12,143.3000000000,A01BBE,5,1548831328000
1548831329109.3798828125,12,150.7500000000,A01BBE,5,1548831328000
1548831329125.0000000000,12,157.7700000000,A01BBE,5,1548831328000
1548831329140.6201171875,12,166.6400000000,A01BBE,5,1548831328000
1548831329156.2500000000,12,177.9500000000,A01BBE,5,1548831328000
1548831329171.8798828125,12,191.7900000000,A01BBE,5,1548831328000
1548831329187.5000000000,12,206.9700000000,A01BBE,5,1548831328000
1548831329203.1201171875,12,220.5700000000,A01BBE,5,1548831328000
1548831329218.7500000000,12,228.2500000000,A01BBE,5,1548831328000
1548831329234.3798828125,12,225.3600000000,A01BBE,5,1548831328000
1548831329250.0000000000,12,208.5300000000,A01BBE,5,1548831328000
1548831329265.6201171875,12,176.8700000000,A01BBE,5,1548831328000
1548831329281.2500000000,12,132.7600000000,A01BBE,5,1548831328000
1548831329296.8798828125,12,80.0500000000,A01BBE,5,1548831328000
1548831329312.5000000000,12,23.0700000000,A01BBE,5,1548831328000
1548831329328.1201171875,12,-34.9400000000,A01BBE,5,1548831328000
1548831329343.7500000000,12,-92.4400000000,A01BBE,5,1548831328000
1548831329359.3798828125,12,-149.1600000000,A01BBE,5,1548831328000
1548831329375.0000000000,12,-205.2300000000,A01BBE,5,1548831328000
1548831329390.6201171875,12,-260.3700000000,A01BBE,5,1548831328000
1548831329406.2500000000,12,-313.7400000000,A01BBE,5,1548831328000
1548831329421.8798828125,12,-363.8700000000,A01BBE,5,1548831328000
1548831329437.5000000000,12,-409.8300000000,A01BBE,5,1548831328000
1548831329453.1201171875,12,-450.9100000000,A01BBE,5,1548831328000
1548831329468.7500000000,12,-486.5000000000,A01BBE,5,1548831328000
1548831329484.3798828125,12,-515.7400000000,A01BBE,5,1548831328000
1548831329500.0000000000,12,-537.2300000000,A01BBE,5,1548831328000
1548831329515.6201171875,12,-549.2200000000,A01BBE,5,1548831328000
1548831329531.2500000000,12,-549.9600000000,A01BBE,5,1548831328000
1548831329546.8798828125,12,-538.3700000000,A01BBE,5,1548831328000
1548831329562.5000000000,12,-514.2100000000,A01BBE,5,1548831328000
1548831329578.1201171875,12,-478.6700000000,A01BBE,5,1548831328000
1548831329593.7500000000,12,-433.8800000000,A01BBE,5,1548831328000
1548831329609.3798828125,12,-382.4500000000,A01BBE,5,1548831328000
1548831329625.0000000000,12,-327.0200000000,A01BBE,5,1548831328000
1548831329640.6201171875,12,-269.8400000000,A01BBE,5,1548831328000
1548831329656.2500000000,12,-212.6300000000,A01BBE,5,1548831328000
1548831329671.8798828125,12,-156.6600000000,A01BBE,5,1548831328000
1548831329687.5000000000,12,-102.9500000000,A01BBE,5,1548831328000
1548831329703.1201171875,12,-52.3700000000,A01BBE,5,1548831328000
1548831329718.7500000000,12,-5.9000000000,A01BBE,5,1548831328000
1548831329734.3798828125,12,35.5800000000,A01BBE,5,1548831328000
1548831329750.0000000000,12,71.4300000000,A01BBE,5,1548831328000
1548831329765.6201171875,12,101.3500000000,A01BBE,5,1548831328000
1548831329781.2500000000,12,125.5000000000,A01BBE,5,1548831328000
1548831329796.8798828125,12,144.3800000000,A01BBE,5,1548831328000
1548831329812.5000000000,12,158.6900000000,A01BBE,5,1548831328000
1548831329828.1201171875,12,169.1500000000,A01BBE,5,1548831328000
1548831329843.7500000000,12,176.3700000000,A01BBE,5,1548831328000
1548831329859.3798828125,12,180.7500000000,A01BBE,5,1548831328000
1548831329875.0000000000,12,182.5700000000,A01BBE,5,1548831328000
1548831329890.6201171875,12,182.0700000000,A01BBE,5,1548831328000
1548831329906.2500000000,12,179.5100000000,A01BBE,5,1548831328000
1548831329921.8798828125,12,175.2300000000,A01BBE,5,1548831328000
1548831329937.5000000000,12,169.6500000000,A01BBE,5,1548831328000
1548831329953.1201171875,12,163.1800000000,A01BBE,5,1548831328000
1548831329968.7500000000,12,156.1500000000,A01BBE,5,1548831328000
1548831329984.3798828125,12,148.8100000000,A01BBE,5,1548831328000
1548831330000.0000000000,12,141.3000000000,A01BBE,5,1548831328000
1548831330015.6201171875,12,133.6900000000,A01BBE,5,1548831328000
1548831330031.2500000000,12,126.0200000000,A01BBE,5,1548831328000
1548831330046.8798828125,12,118.3300000000,A01BBE,5,1548831328000
1548831330062.5000000000,12,110.6900000000,A01BBE,5,1548831328000
1548831330078.1201171875,12,103.1600000000,A01BBE,5,1548831328000
1548831330093.7500000000,12,95.8000000000,A01BBE,5,1548831328000
1548831330109.3798828125,12,88.6800000000,A01BBE,5,1548831328000
1548831330125.0000000000,12,81.8300000000,A01BBE,5,1548831328000
1548831330140.6201171875,12,75.2500000000,A01BBE,5,1548831328000
1548831330156.2500000000,12,68.9500000000,A01BBE,5,1548831328000
1548831330171.8798828125,12,62.9500000000,A01BBE,5,1548831328000
1548831330187.5000000000,12,57.2500000000,A01BBE,5,1548831328000
1548831330203.1201171875,12,51.8600000000,A01BBE,5,1548831328000
1548831330218.7500000000,12,46.7800000000,A01BBE,5,1548831328000
1548831330234.3798828125,12,42.0300000000,A01BBE,5,1548831328000
1548831330250.0000000000,12,37.5900000000,A01BBE,5,1548831328000
1548831330265.6201171875,12,33.4500000000,A01BBE,5,1548831328000
1548831330281.2500000000,12,29.6100000000,A01BBE,5,1548831328000
1548831330296.8798828125,12,26.0700000000,A01BBE,5,1548831328000
1548831330312.5000000000,12,22.8100000000,A01BBE,5,1548831328000
1548831330328.1201171875,12,19.8300000000,A01BBE,5,1548831328000
1548831330343.7500000000,12,17.1100000000,A01BBE,5,1548831328000
1548831330359.3798828125,12,14.6700000000,A01BBE,5,1548831328000
1548831330375.0000000000,12,12.4800000000,A01BBE,5,1548831328000
1548831330390.6201171875,12,10.5400000000,A01BBE,5,1548831328000
1548831330406.2500000000,12,8.8300000000,A01BBE,5,1548831328000
1548831330421.8798828125,12,7.3500000000,A01BBE,5,1548831328000
1548831330437.5000000000,12,6.0700000000,A01BBE,5,1548831328000
1548831330453.1201171875,12,4.9700000000,A01BBE,5,1548831328000
1548831330468.7500000000,12,4.0500000000,A01BBE,5,1548831328000
1548831330484.3798828125,12,3.2700000000,A01BBE,5,1548831328000
1548831330500.0000000000,12,2.6200000000,A01BBE,5,1548831328000
1548831330515.6201171875,12,2.0900000000,A01BBE,5,1548831328000
1548831330531.2500000000,12,1.6500000000,A01BBE,5,1548831328000
1548831330546.8798828125,12,1.3000000000,A01BBE,5,1548831328000
1548831330562.5000000000,12,1.0100000000,A01BBE,5,1548831328000
1548831330578.1201171875,12,0.7900000000,A01BBE,5,1548831328000
1548831330593.7500000000,12,0.6100000000,A01BBE,5,1548831328000
1548831330609.3798828125,12,0.4700000000,A01BBE,5,1548831328000
1548831330625.0000000000,12,0.3700000000,A01BBE,5,1548831328000
1548831330640.6201171875,12,0.2900000000,A01BBE,5,1548831328000
1548831330656.2500000000,12,0.2300000000,A01BBE,5,1548831328000
1548831330671.8798828125,12,0.1800000000,A01BBE,5,1548831328000
1548831330687.5000000000,12,0.1600000000,A01BBE,5,1548831328000
1548831330703.1201171875,12,0.1400000000,A01BBE,5,1548831328000
1548831330718.7500000000,12,0.1300000000,A01BBE,5,1548831328000
1548831330734.3798828125,12,0.1400000000,A01BBE,5,1548831328000
1548831330750.0000000000,12,0.1500000000,A01BBE,5,1548831328000
1548831330765.6201171875,12,0.1700000000,A01BBE,5,1548831328000
1548831330781.2500000000,12,0.2000000000,A01BBE,5,1548831328000
1548831330796.8798828125,12,0.2300000000,A01BBE,5,1548831328000
1548831330812.5000000000,12,0.2700000000,A01BBE,5,1548831328000
1548831330828.1201171875,12,0.3000000000,A01BBE,5,1548831328000
1548831330843.7500000000,12,0.3500000000,A01BBE,5,1548831328000
1548831330859.3798828125,12,0.3900000000,A01BBE,5,1548831328000
1548831330875.0000000000,12,0.4400000000,A01BBE,5,1548831328000
1548831330890.6201171875,12,0.4800000000,A01BBE,5,1548831328000
1548831330906.2500000000,12,0.5300000000,A01BBE,5,1548831328000
1548831330921.8798828125,12,0.5800000000,A01BBE,5,1548831328000
1548831330937.5000000000,12,0.6300000000,A01BBE,5,1548831328000
1548831330953.1201171875,12,0.6900000000,A01BBE,5,1548831328000
1548831330968.7500000000,12,0.7400000000,A01BBE,5,1548831328000
1548831330984.3798828125,12,0.8100000000,A01BBE,5,1548831328000
1548831331000.0000000000,12,0.8700000000,A01BBE,5,1548831328000
1548831331015.6201171875,12,0.9500000000,A01BBE,5,1548831328000
1548831331031.2500000000,12,1.0300000000,A01BBE,5,1548831328000
1548831331046.8798828125,12,1.1200000000,A01BBE,5,1548831328000
1548831331062.5000000000,12,1.2300000000,A01BBE,5,1548831328000
1548831331078.1201171875,12,1.3400000000,A01BBE,5,1548831328000
1548831331093.7500000000,12,1.4700000000,A01BBE,5,1548831328000
1548831331109.3798828125,12,1.6100000000,A01BBE,5,1548831328000
1548831331125.0000000000,12,1.7700000000,A01BBE,5,1548831328000
1548831331140.6201171875,12,1.9500000000,A01BBE,5,1548831328000
1548831331156.2500000000,12,2.1600000000,A01BBE,5,1548831328000
1548831331171.8798828125,12,2.3800000000,A01BBE,5,1548831328000
1548831331187.5000000000,12,2.6200000000,A01BBE,5,1548831328000
1548831331203.1201171875,12,2.8900000000,A01BBE,5,1548831328000
1548831331218.7500000000,12,3.1900000000,A01BBE,5,1548831328000
1548831331234.3798828125,12,3.5200000000,A01BBE,5,1548831328000
1548831331250.0000000000,12,3.8900000000,A01BBE,5,1548831328000
1548831331265.6201171875,12,4.2800000000,A01BBE,5,1548831328000
1548831331281.2500000000,12,4.7100000000,A01BBE,5,1548831328000
1548831331296.8798828125,12,5.1700000000,A01BBE,5,1548831328000
1548831331312.5000000000,12,5.6700000000,A01BBE,5,1548831328000
1548831331328.1201171875,12,6.2100000000,A01BBE,5,1548831328000
1548831331343.7500000000,12,6.7900000000,A01BBE,5,1548831328000
1548831331359.3798828125,12,7.4200000000,A01BBE,5,1548831328000
1548831331375.0000000000,12,8.0800000000,A01BBE,5,1548831328000
1548831331390.6201171875,12,8.7900000000,A01BBE,5,1548831328000
1548831331406.2500000000,12,9.5400000000,A01BBE,5,1548831328000
1548831331421.8798828125,12,10.3400000000,A01BBE,5,1548831328000
1548831331437.5000000000,12,11.1900000000,A01BBE,5,1548831328000
1548831331453.1201171875,12,12.0700000000,A01BBE,5,1548831328000
1548831331468.7500000000,12,13.0000000000,A01BBE,5,1548831328000
1548831331484.3798828125,12,13.9900000000,A01BBE,5,1548831328000
1548831331500.0000000000,12,15.0400000000,A01BBE,5,1548831328000
1548831331515.6201171875,12,16.1500000000,A01BBE,5,1548831328000
1548831331531.2500000000,12,17.3200000000,A01BBE,5,1548831328000
1548831331546.8798828125,12,18.5500000000,A01BBE,5,1548831328000
1548831331562.5000000000,12,19.8100000000,A01BBE,5,1548831328000
1548831331578.1201171875,12,21.0800000000,A01BBE,5,1548831328000
1548831331593.7500000000,12,22.3000000000,A01BBE,5,1548831328000
1548831331609.3798828125,12,23.3800000000,A01BBE,5,1548831328000
1548831331625.0000000000,12,24.2300000000,A01BBE,5,1548831328000
1548831331640.6201171875,12,24.7400000000,A01BBE,5,1548831328000
1548831331656.2500000000,12,24.7500000000,A01BBE,5,1548831328000
1548831331671.8798828125,12,24.2000000000,A01BBE,5,1548831328000
1548831331687.5000000000,12,22.9600000000,A01BBE,5,1548831328000
1548831331703.1201171875,12,21.0000000000,A01BBE,5,1548831328000
1548831331718.7500000000,12,18.3200000000,A01BBE,5,1548831328000
1548831331734.3798828125,12,14.9800000000,A01BBE,5,1548831328000
1548831331750.0000000000,12,11.0500000000,A01BBE,5,1548831328000
1548831331765.6201171875,12,6.7300000000,A01BBE,5,1548831328000
1548831331781.2500000000,12,2.2100000000,A01BBE,5,1548831328000
1548831331796.8798828125,12,-2.3100000000,A01BBE,5,1548831328000
1548831331812.5000000000,12,-6.6000000000,A01BBE,5,1548831328000
1548831331828.1201171875,12,-10.4700000000,A01BBE,5,1548831328000
1548831331843.7500000000,12,-13.7400000000,A01BBE,5,1548831328000
1548831331859.3798828125,12,-16.3000000000,A01BBE,5,1548831328000
1548831331875.0000000000,12,-18.0900000000,A01BBE,5,1548831328000
1548831331890.6201171875,12,-19.1100000000,A01BBE,5,1548831328000
1548831331906.2500000000,12,-19.4000000000,A01BBE,5,1548831328000
1548831331921.8798828125,12,-19.1000000000,A01BBE,5,1548831328000
1548831331937.5000000000,12,-18.3400000000,A01BBE,5,1548831328000
1548831331953.1201171875,12,-17.2700000000,A01BBE,5,1548831328000
1548831331968.7500000000,12,-16.0000000000,A01BBE,5,1548831328000
1548831331984.3798828125,12,-14.6100000000,A01BBE,5,1548831328000
1548831332000.0000000000,12,-13.1300000000,A01BBE,5,1548831328000
1548831332015.6201171875,12,-11.5900000000,A01BBE,5,1548831328000
1548831332031.2500000000,12,-9.9800000000,A01BBE,5,1548831328000
1548831332046.8798828125,12,-8.3100000000,A01BBE,5,1548831328000
1548831332062.5000000000,12,-6.6300000000,A01BBE,5,1548831328000
1548831332078.1201171875,12,-4.9900000000,A01BBE,5,1548831328000
1548831332093.7500000000,12,-3.3900000000,A01BBE,5,1548831328000
1548831332109.3798828125,12,-1.8500000000,A01BBE,5,1548831328000
1548831332125.0000000000,12,-0.3100000000,A01BBE,5,1548831328000
1548831332140.6201171875,12,1.2900000000,A01BBE,5,1548831328000
1548831332156.2500000000,12,2.9800000000,A01BBE,5,1548831328000
1548831332171.8798828125,12,4.8100000000,A01BBE,5,1548831328000
1548831332187.5000000000,12,6.8300000000,A01BBE,5,1548831328000
1548831332203.1201171875,12,8.8800000000,A01BBE,5,1548831328000
1548831332218.7500000000,12,10.8600000000,A01BBE,5,1548831328000
1548831332234.3798828125,12,12.7400000000,A01BBE,5,1548831328000
1548831332250.0000000000,12,14.5300000000,A01BBE,5,1548831328000
1548831332265.6201171875,12,16.3000000000,A01BBE,5,1548831328000
1548831332281.2500000000,12,18.2100000000,A01BBE,5,1548831328000
1548831332296.8798828125,12,20.3700000000,A01BBE,5,1548831328000
1548831332312.5000000000,12,22.8700000000,A01BBE,5,1548831328000
1548831332328.1201171875,12,25.7800000000,A01BBE,5,1548831328000
1548831332343.7500000000,12,28.7300000000,A01BBE,5,1548831328000
1548831332359.3798828125,12,31.4900000000,A01BBE,5,1548831328000
1548831332375.0000000000,12,33.9000000000,A01BBE,5,1548831328000
1548831332390.6201171875,12,35.9900000000,A01BBE,5,1548831328000
1548831332406.2500000000,12,37.9200000000,A01BBE,5,1548831328000
1548831332421.8798828125,12,39.9700000000,A01BBE,5,1548831328000
1548831332437.5000000000,12,42.4400000000,A01BBE,5,1548831328000
1548831332453.1201171875,12,45.4600000000,A01BBE,5,1548831328000
1548831332468.7500000000,12,49.1000000000,A01BBE,5,1548831328000
1548831332484.3798828125,12,52.7200000000,A01BBE,5,1548831328000
1548831332500.0000000000,12,55.7900000000,A01BBE,5,1548831328000
1548831332515.6201171875,12,58.0400000000,A01BBE,5,1548831328000
1548831332531.2500000000,12,59.4500000000,A01BBE,5,1548831328000
1548831332546.8798828125,12,60.3100000000,A01BBE,5,1548831328000
1548831332562.5000000000,12,61.0800000000,A01BBE,5,1548831328000
1548831332578.1201171875,12,62.2000000000,A01BBE,5,1548831328000
1548831332593.7500000000,12,63.8500000000,A01BBE,5,1548831328000
1548831332609.3798828125,12,66.0000000000,A01BBE,5,1548831328000
1548831332625.0000000000,12,67.6400000000,A01BBE,5,1548831328000
1548831332640.6201171875,12,67.9000000000,A01BBE,5,1548831328000
1548831332656.2500000000,12,66.1500000000,A01BBE,5,1548831328000
1548831332671.8798828125,12,62.1200000000,A01BBE,5,1548831328000
1548831332687.5000000000,12,55.8200000000,A01BBE,5,1548831328000
1548831332703.1201171875,12,47.2000000000,A01BBE,5,1548831328000
1548831332718.7500000000,12,35.8100000000,A01BBE,5,1548831328000
1548831332734.3798828125,12,20.2500000000,A01BBE,5,1548831328000
1548831332750.0000000000,12,3.1800000000,A01BBE,5,1548831328000
1548831332765.6201171875,12,-15.1100000000,A01BBE,5,1548831328000
1548831332781.2500000000,12,-34.8000000000,A01BBE,5,1548831328000
1548831332796.8798828125,12,-56.2800000000,A01BBE,5,1548831328000
1548831332812.5000000000,12,-80.1300000000,A01BBE,5,1548831328000
1548831332828.1201171875,12,-106.7800000000,A01BBE,5,1548831328000
1548831332843.7500000000,12,-136.0000000000,A01BBE,5,1548831328000
1548831332859.3798828125,12,-166.2800000000,A01BBE,5,1548831328000
1548831332875.0000000000,12,-194.5900000000,A01BBE,5,1548831328000
1548831332890.6201171875,12,-216.7700000000,A01BBE,5,1548831328000
1548831332906.2500000000,12,-229.5100000000,A01BBE,5,1548831328000
1548831332921.8798828125,12,-230.8500000000,A01BBE,5,1548831328000
1548831332937.5000000000,12,-221.2200000000,A01BBE,5,1548831328000
1548831332953.1201171875,12,-203.3600000000,A01BBE,5,1548831328000
1548831332968.7500000000,12,-181.3100000000,A01BBE,5,1548831328000
1548831332984.3798828125,12,-158.8900000000,A01BBE,5,1548831328000
1548831333000.0000000000,12,-138.6500000000,A01BBE,5,1548831328000
1548831333015.6201171875,12,-121.5400000000,A01BBE,5,1548831328000
1548831333031.2500000000,12,-107.3600000000,A01BBE,5,1548831328000
1548831333046.8798828125,12,-96.0700000000,A01BBE,5,1548831328000
1548831333062.5000000000,12,-87.4000000000,A01BBE,5,1548831328000
1548831333078.1201171875,12,-80.9100000000,A01BBE,5,1548831328000
1548831333093.7500000000,12,-75.6300000000,A01BBE,5,1548831328000
1548831333109.3798828125,12,-69.9200000000,A01BBE,5,1548831328000
1548831333125.0000000000,12,-61.8900000000,A01BBE,5,1548831328000
1548831333140.6201171875,12,-50.1000000000,A01BBE,5,1548831328000
1548831333156.2500000000,12,-34.3200000000,A01BBE,5,1548831328000
1548831333171.8798828125,12,-15.6800000000,A01BBE,5,1548831328000
1548831333187.5000000000,12,3.3200000000,A01BBE,5,1548831328000
1548831333203.1201171875,12,20.1200000000,A01BBE,5,1548831328000
1548831333218.7500000000,12,32.9600000000,A01BBE,5,1548831328000
1548831333234.3798828125,12,41.3700000000,A01BBE,5,1548831328000
1548831333250.0000000000,12,46.0500000000,A01BBE,5,1548831328000
1548831333265.6201171875,12,48.3000000000,A01BBE,5,1548831328000
1548831333281.2500000000,12,49.3200000000,A01BBE,5,1548831328000
1548831333296.8798828125,12,49.7200000000,A01BBE,5,1548831328000
1548831333312.5000000000,12,49.5100000000,A01BBE,5,1548831328000
1548831333328.1201171875,12,48.2400000000,A01BBE,5,1548831328000
1548831333343.7500000000,12,45.7100000000,A01BBE,5,1548831328000
1548831333359.3798828125,12,42.1100000000,A01BBE,5,1548831328000
1548831333375.0000000000,12,38.0300000000,A01BBE,5,1548831328000
1548831333390.6201171875,12,34.2000000000,A01BBE,5,1548831328000
1548831333406.2500000000,12,31.1500000000,A01BBE,5,1548831328000
1548831333421.8798828125,12,29.1300000000,A01BBE,5,1548831328000
1548831333437.5000000000,12,28.1300000000,A01BBE,5,1548831328000
1548831333453.1201171875,12,28.0200000000,A01BBE,5,1548831328000
1548831333468.7500000000,12,28.6400000000,A01BBE,5,1548831328000
1548831333484.3798828125,12,29.8700000000,A01BBE,5,1548831328000
1548831333500.0000000000,12,31.5900000000,A01BBE,5,1548831328000
1548831333515.6201171875,12,33.5900000000,A01BBE,5,1548831328000
1548831333531.2500000000,12,35.4900000000,A01BBE,5,1548831328000
1548831333546.8798828125,12,36.8200000000,A01BBE,5,1548831328000
1548831333562.5000000000,12,37.1000000000,A01BBE,5,1548831328000
1548831333578.1201171875,12,35.9800000000,A01BBE,5,1548831328000
1548831333593.7500000000,12,33.3300000000,A01BBE,5,1548831328000
1548831333609.3798828125,12,29.3400000000,A01BBE,5,1548831328000
1548831333625.0000000000,12,24.5500000000,A01BBE,5,1548831328000
1548831333640.6201171875,12,19.7100000000,A01BBE,5,1548831328000
1548831333656.2500000000,12,15.4900000000,A01BBE,5,1548831328000
1548831333671.8798828125,12,12.2500000000,A01BBE,5,1548831328000
1548831333687.5000000000,12,9.8200000000,A01BBE,5,1548831328000
1548831333703.1201171875,12,7.6400000000,A01BBE,5,1548831328000
1548831333718.7500000000,12,4.9300000000,A01BBE,5,1548831328000
1548831333734.3798828125,12,1.1500000000,A01BBE,5,1548831328000
1548831333750.0000000000,12,-3.9000000000,A01BBE,5,1548831328000
1548831333765.6201171875,12,-9.9000000000,A01BBE,5,1548831328000
1548831333781.2500000000,12,-16.2400000000,A01BBE,5,1548831328000
1548831333796.8798828125,12,-22.1500000000,A01BBE,5,1548831328000
1548831333812.5000000000,12,-26.8200000000,A01BBE,5,1548831328000
1548831333828.1201171875,12,-29.5300000000,A01BBE,5,1548831328000
1548831333843.7500000000,12,-29.6000000000,A01BBE,5,1548831328000
1548831333859.3798828125,12,-26.5600000000,A01BBE,5,1548831328000
1548831333875.0000000000,12,-20.3500000000,A01BBE,5,1548831328000
1548831333890.6201171875,12,-11.4700000000,A01BBE,5,1548831328000
1548831333906.2500000000,12,-0.9700000000,A01BBE,5,1548831328000
1548831333921.8798828125,12,9.7800000000,A01BBE,5,1548831328000
1548831333937.5000000000,12,19.4500000000,A01BBE,5,1548831328000
1548831333953.1201171875,12,27.1300000000,A01BBE,5,1548831328000
1548831333968.7500000000,12,32.4700000000,A01BBE,5,1548831328000
1548831333984.3798828125,12,35.5300000000,A01BBE,5,1548831328000
1548831334000.0000000000,12,36.5900000000,A01BBE,5,1548831328000
1548831334015.6201171875,12,35.9500000000,A01BBE,5,1548831328000
1548831334031.2500000000,12,33.8300000000,A01BBE,5,1548831328000
1548831334046.8798828125,12,30.4800000000,A01BBE,5,1548831328000
1548831334062.5000000000,12,26.3000000000,A01BBE,5,1548831328000
1548831334078.1201171875,12,21.8100000000,A01BBE,5,1548831328000
1548831334093.7500000000,12,17.6500000000,A01BBE,5,1548831328000
1548831334109.3798828125,12,14.3500000000,A01BBE,5,1548831328000
1548831334125.0000000000,12,12.2300000000,A01BBE,5,1548831328000
1548831334140.6201171875,12,11.3200000000,A01BBE,5,1548831328000
1548831334156.2500000000,12,11.4100000000,A01BBE,5,1548831328000
1548831334171.8798828125,12,12.1300000000,A01BBE,5,1548831328000
1548831334187.5000000000,12,13.1900000000,A01BBE,5,1548831328000
1548831334203.1201171875,12,14.3800000000,A01BBE,5,1548831328000
1548831334218.7500000000,12,15.7000000000,A01BBE,5,1548831328000
1548831334234.3798828125,12,17.2200000000,A01BBE,5,1548831328000
1548831334250.0000000000,12,18.9900000000,A01BBE,5,1548831328000
1548831334265.6201171875,12,20.8700000000,A01BBE,5,1548831328000
1548831334281.2500000000,12,22.4300000000,A01BBE,5,1548831328000
1548831334296.8798828125,12,23.1200000000,A01BBE,5,1548831328000
1548831334312.5000000000,12,22.4400000000,A01BBE,5,1548831328000
1548831334328.1201171875,12,20.1800000000,A01BBE,5,1548831328000
1548831334343.7500000000,12,16.5800000000,A01BBE,5,1548831328000
1548831334359.3798828125,12,12.1900000000,A01BBE,5,1548831328000
1548831334375.0000000000,12,7.6800000000,A01BBE,5,1548831328000
1548831334390.6201171875,12,3.4900000000,A01BBE,5,1548831328000
1548831334406.2500000000,12,-0.2300000000,A01BBE,5,1548831328000
1548831334421.8798828125,12,-3.6200000000,A01BBE,5,1548831328000
1548831334437.5000000000,12,-6.9300000000,A01BBE,5,1548831328000
1548831334453.1201171875,12,-10.3700000000,A01BBE,5,1548831328000
1548831334468.7500000000,12,-14.0000000000,A01BBE,5,1548831328000
1548831334484.3798828125,12,-17.8100000000,A01BBE,5,1548831328000
1548831334500.0000000000,12,-21.8500000000,A01BBE,5,1548831328000
1548831334515.6201171875,12,-26.2200000000,A01BBE,5,1548831328000
1548831334531.2500000000,12,-31.0300000000,A01BBE,5,1548831328000
1548831334546.8798828125,12,-36.1800000000,A01BBE,5,1548831328000
1548831334562.5000000000,12,-41.1500000000,A01BBE,5,1548831328000
1548831334578.1201171875,12,-44.9800000000,A01BBE,5,1548831328000
1548831334593.7500000000,12,-46.4300000000,A01BBE,5,1548831328000
1548831334609.3798828125,12,-44.4700000000,A01BBE,5,1548831328000
1548831334625.0000000000,12,-38.6400000000,A01BBE,5,1548831328000
1548831334640.6201171875,12,-29.3800000000,A01BBE,5,1548831328000
1548831334656.2500000000,12,-17.9100000000,A01BBE,5,1548831328000
1548831334671.8798828125,12,-5.9100000000,A01BBE,5,1548831328000
1548831334687.5000000000,12,5.0800000000,A01BBE,5,1548831328000
1548831334703.1201171875,12,14.0300000000,A01BBE,5,1548831328000
1548831334718.7500000000,12,20.6000000000,A01BBE,5,1548831328000
1548831334734.3798828125,12,24.9800000000,A01BBE,5,1548831328000
1548831334750.0000000000,12,27.5300000000,A01BBE,5,1548831328000
1548831334765.6201171875,12,28.4900000000,A01BBE,5,1548831328000
1548831334781.2500000000,12,27.9500000000,A01BBE,5,1548831328000
1548831334796.8798828125,12,25.9400000000,A01BBE,5,1548831328000
1548831334812.5000000000,12,22.6300000000,A01BBE,5,1548831328000
1548831334828.1201171875,12,18.4800000000,A01BBE,5,1548831328000
1548831334843.7500000000,12,14.1400000000,A01BBE,5,1548831328000
1548831334859.3798828125,12,10.3400000000,A01BBE,5,1548831328000
1548831334875.0000000000,12,7.5900000000,A01BBE,5,1548831328000
1548831334890.6201171875,12,6.1000000000,A01BBE,5,1548831328000
1548831334906.2500000000,12,5.7300000000,A01BBE,5,1548831328000
1548831334921.8798828125,12,6.1200000000,A01BBE,5,1548831328000
1548831334937.5000000000,12,6.8800000000,A01BBE,5,1548831328000
1548831334953.1201171875,12,7.7200000000,A01BBE,5,1548831328000
1548831334968.7500000000,12,8.5100000000,A01BBE,5,1548831328000
1548831334984.3798828125,12,9.2600000000,A01BBE,5,1548831328000
1548831335000.0000000000,12,10.0500000000,A01BBE,5,1548831328000
1548831335015.6201171875,12,10.8700000000,A01BBE,5,1548831328000
1548831335031.2500000000,12,11.6100000000,A01BBE,5,1548831328000
1548831335046.8798828125,12,12.0000000000,A01BBE,5,1548831328000
1548831335062.5000000000,12,11.7300000000,A01BBE,5,1548831328000
1548831335078.1201171875,12,10.5300000000,A01BBE,5,1548831328000
1548831335093.7500000000,12,8.3100000000,A01BBE,5,1548831328000
1548831335109.3798828125,12,5.2200000000,A01BBE,5,1548831328000
1548831335125.0000000000,12,1.6100000000,A01BBE,5,1548831328000
1548831335140.6201171875,12,-2.1300000000,A01BBE,5,1548831328000
1548831335156.2500000000,12,-5.6300000000,A01BBE,5,1548831328000
1548831335171.8798828125,12,-8.7000000000,A01BBE,5,1548831328000
1548831335187.5000000000,12,-11.3400000000,A01BBE,5,1548831328000
1548831335203.1201171875,12,-13.7300000000,A01BBE,5,1548831328000
1548831335218.7500000000,12,-16.1700000000,A01BBE,5,1548831328000
1548831335234.3798828125,12,-18.9700000000,A01BBE,5,1548831328000
1548831335250.0000000000,12,-22.3600000000,A01BBE,5,1548831328000
1548831335265.6201171875,12,-26.3900000000,A01BBE,5,1548831328000
1548831335281.2500000000,12,-30.8300000000,A01BBE,5,1548831328000
1548831335296.8798828125,12,-35.0700000000,A01BBE,5,1548831328000
1548831335312.5000000000,12,-38.2100000000,A01BBE,5,1548831328000
1548831335328.1201171875,12,-39.2300000000,A01BBE,5,1548831328000
1548831335343.7500000000,12,-37.2800000000,A01BBE,5,1548831328000
1548831335359.3798828125,12,-32.0200000000,A01BBE,5,1548831328000
1548831335375.0000000000,12,-23.7100000000,A01BBE,5,1548831328000
1548831335390.6201171875,12,-13.2700000000,A01BBE,5,1548831328000
1548831335406.2500000000,12,-1.9800000000,A01BBE,5,1548831328000
1548831335421.8798828125,12,8.9000000000,A01BBE,5,1548831328000
1548831335437.5000000000,12,18.3500000000,A01BBE,5,1548831328000
1548831335453.1201171875,12,25.7900000000,A01BBE,5,1548831328000
1548831335468.7500000000,12,31.0500000000,A01BBE,5,1548831328000
1548831335484.3798828125,12,34.2200000000,A01BBE,5,1548831328000
1548831335500.0000000000,12,35.4400000000,A01BBE,5,1548831328000
1548831335515.6201171875,12,34.9100000000,A01BBE,5,1548831328000
1548831335531.2500000000,12,32.7800000000,A01BBE,5,1548831328000
1548831335546.8798828125,12,29.2500000000,A01BBE,5,1548831328000
1548831335562.5000000000,12,24.6800000000,A01BBE,5,1548831328000
1548831335578.1201171875,12,19.5900000000,A01BBE,5,1548831328000
1548831335593.7500000000,12,14.6300000000,A01BBE,5,1548831328000
1548831335609.3798828125,12,10.4400000000,A01BBE,5,1548831328000
1548831335625.0000000000,12,7.5000000000,A01BBE,5,1548831328000
1548831335640.6201171875,12,5.9200000000,A01BBE,5,1548831328000
1548831335656.2500000000,12,5.5300000000,A01BBE,5,1548831328000
1548831335671.8798828125,12,5.9100000000,A01BBE,5,1548831328000
1548831335687.5000000000,12,6.6700000000,A01BBE,5,1548831328000
1548831335703.1201171875,12,7.5800000000,A01BBE,5,1548831328000
1548831335718.7500000000,12,8.5900000000,A01BBE,5,1548831328000
1548831335734.3798828125,12,9.7900000000,A01BBE,5,1548831328000
1548831335750.0000000000,12,11.1300000000,A01BBE,5,1548831328000
1548831335765.6201171875,12,12.3700000000,A01BBE,5,1548831328000
1548831335781.2500000000,12,12.9900000000,A01BBE,5,1548831328000
1548831335796.8798828125,12,12.5300000000,A01BBE,5,1548831328000
1548831335812.5000000000,12,10.7000000000,A01BBE,5,1548831328000
1548831335828.1201171875,12,7.6400000000,A01BBE,5,1548831328000
1548831335843.7500000000,12,3.8500000000,A01BBE,5,1548831328000
1548831335859.3798828125,12,0.0300000000,A01BBE,5,1548831328000
1548831335875.0000000000,12,-3.2600000000,A01BBE,5,1548831328000
1548831335890.6201171875,12,-5.8300000000,A01BBE,5,1548831328000
1548831335906.2500000000,12,-7.8900000000,A01BBE,5,1548831328000
1548831335921.8798828125,12,-10.0000000000,A01BBE,5,1548831328000
1548831335937.5000000000,12,-12.7800000000,A01BBE,5,1548831328000
1548831335953.1201171875,12,-16.7200000000,A01BBE,5,1548831328000
1548831335968.7500000000,12,-21.9300000000,A01BBE,5,1548831328000
1548831335984.3798828125,12,-28.0500000000,A01BBE,5,1548831328000
1548831336000.0000000000,12,-34.2600000000,A01BBE,5,1548831328000
1548831336015.6201171875,12,-39.4600000000,A01BBE,5,1548831328000
1548831336031.2500000000,12,-42.5000000000,A01BBE,5,1548831328000
1548831336046.8798828125,12,-42.5000000000,A01BBE,5,1548831328000
1548831336062.5000000000,12,-39.1200000000,A01BBE,5,1548831328000
1548831336078.1201171875,12,-32.5900000000,A01BBE,5,1548831328000
1548831336093.7500000000,12,-23.7200000000,A01BBE,5,1548831328000
1548831336109.3798828125,12,-13.6000000000,A01BBE,5,1548831328000
1548831336125.0000000000,12,-3.3900000000,A01BBE,5,1548831328000
1548831336140.6201171875,12,5.9200000000,A01BBE,5,1548831328000
1548831336156.2500000000,12,13.6300000000,A01BBE,5,1548831328000
1548831336171.8798828125,12,19.3400000000,A01BBE,5,1548831328000
1548831336187.5000000000,12,22.8900000000,A01BBE,5,1548831328000
1548831336203.1201171875,12,24.3000000000,A01BBE,5,1548831328000
1548831336218.7500000000,12,23.7600000000,A01BBE,5,1548831328000
1548831336234.3798828125,12,21.5900000000,A01BBE,5,1548831328000
1548831336250.0000000000,12,18.2100000000,A01BBE,5,1548831328000
1548831336265.6201171875,12,14.1500000000,A01BBE,5,1548831328000
1548831336281.2500000000,12,9.9300000000,A01BBE,5,1548831328000
1548831336296.8798828125,12,6.0900000000,A01BBE,5,1548831328000
1548831336312.5000000000,12,3.0300000000,A01BBE,5,1548831328000
1548831336328.1201171875,12,1.0400000000,A01BBE,5,1548831328000
1548831336343.7500000000,12,0.2200000000,A01BBE,5,1548831328000
1548831336359.3798828125,12,0.5100000000,A01BBE,5,1548831328000
1548831336375.0000000000,12,1.7100000000,A01BBE,5,1548831328000
1548831336390.6201171875,12,3.5700000000,A01BBE,5,1548831328000
1548831336406.2500000000,12,5.8200000000,A01BBE,5,1548831328000
1548831336421.8798828125,12,8.2200000000,A01BBE,5,1548831328000
1548831336437.5000000000,12,10.6100000000,A01BBE,5,1548831328000
1548831336453.1201171875,12,12.8000000000,A01BBE,5,1548831328000
1548831336468.7500000000,12,14.5800000000,A01BBE,5,1548831328000
1548831336484.3798828125,12,15.7600000000,A01BBE,5,1548831328000
1548831336500.0000000000,12,16.1500000000,A01BBE,5,1548831328000
1548831336515.6201171875,12,15.6800000000,A01BBE,5,1548831328000
1548831336531.2500000000,12,14.4200000000,A01BBE,5,1548831328000
1548831336546.8798828125,12,12.6200000000,A01BBE,5,1548831328000
1548831336562.5000000000,12,10.5700000000,A01BBE,5,1548831328000
1548831336578.1201171875,12,8.5100000000,A01BBE,5,1548831328000
1548831336593.7500000000,12,6.5700000000,A01BBE,5,1548831328000
1548831336609.3798828125,12,4.7400000000,A01BBE,5,1548831328000
1548831336625.0000000000,12,2.9100000000,A01BBE,5,1548831328000
1548831336640.6201171875,12,0.8300000000,A01BBE,5,1548831328000
1548831336656.2500000000,12,-1.8400000000,A01BBE,5,1548831328000
1548831336671.8798828125,12,-5.4300000000,A01BBE,5,1548831328000
1548831336687.5000000000,12,-10.1300000000,A01BBE,5,1548831328000
1548831336703.1201171875,12,-15.7500000000,A01BBE,5,1548831328000
1548831336718.7500000000,12,-21.5400000000,A01BBE,5,1548831328000
1548831336734.3798828125,12,-26.2000000000,A01BBE,5,1548831328000
1548831336750.0000000000,12,-28.1800000000,A01BBE,5,1548831328000
1548831336765.6201171875,12,-26.2000000000,A01BBE,5,1548831328000
1548831336781.2500000000,12,-19.8000000000,A01BBE,5,1548831328000
1548831336796.8798828125,12,-9.5800000000,A01BBE,5,1548831328000
1548831336812.5000000000,12,2.9500000000,A01BBE,5,1548831328000
1548831336828.1201171875,12,15.8000000000,A01BBE,5,1548831328000
1548831336843.7500000000,12,27.1800000000,A01BBE,5,1548831328000
1548831336859.3798828125,12,35.8200000000,A01BBE,5,1548831328000
1548831336875.0000000000,12,41.2100000000,A01BBE,5,1548831328000
1548831336890.6201171875,12,43.3300000000,A01BBE,5,1548831328000
1548831336906.2500000000,12,42.4200000000,A01BBE,5,1548831328000
1548831336921.8798828125,12,38.8100000000,A01BBE,5,1548831328000
1548831336937.5000000000,12,32.9100000000,A01BBE,5,1548831328000
1548831336953.1201171875,12,25.3600000000,A01BBE,5,1548831328000
1548831336968.7500000000,12,17.0100000000,A01BBE,5,1548831328000
1548831336984.3798828125,12,8.9200000000,A01BBE,5,1548831328000
1548831337000.0000000000,12,2.0600000000,A01BBE,5,1548831328000
1548831337015.6201171875,12,-2.9700000000,A01BBE,5,1548831328000
1548831337031.2500000000,12,-6.1200000000,A01BBE,5,1548831328000
1548831337046.8798828125,12,-7.7500000000,A01BBE,5,1548831328000
1548831337062.5000000000,12,-8.4500000000,A01BBE,5,1548831328000
1548831337078.1201171875,12,-8.7500000000,A01BBE,5,1548831328000
1548831337093.7500000000,12,-8.9600000000,A01BBE,5,1548831328000
1548831337109.3798828125,12,-9.1600000000,A01BBE,5,1548831328000
1548831337125.0000000000,12,-9.3500000000,A01BBE,5,1548831328000
1548831337140.6201171875,12,-9.6100000000,A01BBE,5,1548831328000
1548831337156.2500000000,12,-10.0900000000,A01BBE,5,1548831328000
1548831337171.8798828125,12,-10.9600000000,A01BBE,5,1548831328000
1548831337187.5000000000,12,-12.3100000000,A01BBE,5,1548831328000
1548831337203.1201171875,12,-14.0600000000,A01BBE,5,1548831328000
1548831337218.7500000000,12,-15.9700000000,A01BBE,5,1548831328000
1548831337234.3798828125,12,-17.7700000000,A01BBE,5,1548831328000
1548831337250.0000000000,12,-19.3000000000,A01BBE,5,1548831328000
1548831337265.6201171875,12,-20.5600000000,A01BBE,5,1548831328000
1548831337281.2500000000,12,-21.8200000000,A01BBE,5,1548831328000
1548831337296.8798828125,12,-23.4900000000,A01BBE,5,1548831328000
1548831337312.5000000000,12,-25.9500000000,A01BBE,5,1548831328000
1548831337328.1201171875,12,-29.4400000000,A01BBE,5,1548831328000
1548831337343.7500000000,12,-33.9700000000,A01BBE,5,1548831328000
1548831337359.3798828125,12,-39.2800000000,A01BBE,5,1548831328000
1548831337375.0000000000,12,-44.9400000000,A01BBE,5,1548831328000
1548831337390.6201171875,12,-50.3800000000,A01BBE,5,1548831328000
1548831337406.2500000000,12,-54.9500000000,A01BBE,5,1548831328000
1548831337421.8798828125,12,-57.9400000000,A01BBE,5,1548831328000
1548831337437.5000000000,12,-58.6000000000,A01BBE,5,1548831328000
1548831337453.1201171875,12,-56.3600000000,A01BBE,5,1548831328000
1548831337468.7500000000,12,-50.9300000000,A01BBE,5,1548831328000
1548831337484.3798828125,12,-42.4900000000,A01BBE,5,1548831328000
1548831337500.0000000000,12,-31.7600000000,A01BBE,5,1548831328000
1548831337515.6201171875,12,-19.8400000000,A01BBE,5,1548831328000
1548831337531.2500000000,12,-7.9500000000,A01BBE,5,1548831328000
1548831337546.8798828125,12,2.8400000000,A01BBE,5,1548831328000
1548831337562.5000000000,12,11.8200000000,A01BBE,5,1548831328000
1548831337578.1201171875,12,18.7600000000,A01BBE,5,1548831328000
1548831337593.7500000000,12,23.7600000000,A01BBE,5,1548831328000
1548831337609.3798828125,12,27.1400000000,A01BBE,5,1548831328000
1548831337625.0000000000,12,29.2300000000,A01BBE,5,1548831328000
1548831337640.6201171875,12,30.3400000000,A01BBE,5,1548831328000
1548831337656.2500000000,12,30.6000000000,A01BBE,5,1548831328000
1548831337671.8798828125,12,30.0700000000,A01BBE,5,1548831328000
1548831337687.5000000000,12,28.7800000000,A01BBE,5,1548831328000
1548831337703.1201171875,12,26.7900000000,A01BBE,5,1548831328000
1548831337718.7500000000,12,24.2800000000,A01BBE,5,1548831328000
1548831337734.3798828125,12,21.4900000000,A01BBE,5,1548831328000
1548831337750.0000000000,12,18.6700000000,A01BBE,5,1548831328000
1548831337765.6201171875,12,16.0300000000,A01BBE,5,1548831328000
1548831337781.2500000000,12,13.7000000000,A01BBE,5,1548831328000
1548831337796.8798828125,12,11.7900000000,A01BBE,5,1548831328000
1548831337812.5000000000,12,10.4300000000,A01BBE,5,1548831328000
1548831337828.1201171875,12,9.7800000000,A01BBE,5,1548831328000
1548831337843.7500000000,12,9.9500000000,A01BBE,5,1548831328000
1548831337859.3798828125,12,10.9200000000,A01BBE,5,1548831328000
1548831337875.0000000000,12,12.4100000000,A01BBE,5,1548831328000
1548831337890.6201171875,12,13.9400000000,A01BBE,5,1548831328000
1548831337906.2500000000,12,14.9400000000,A01BBE,5,1548831328000
1548831337921.8798828125,12,14.9500000000,A01BBE,5,1548831328000
1548831337937.5000000000,12,13.8400000000,A01BBE,5,1548831328000
1548831337953.1201171875,12,11.7900000000,A01BBE,5,1548831328000
1548831337968.7500000000,12,9.2500000000,A01BBE,5,1548831328000
1548831337984.3798828125,12,6.6700000000,A01BBE,5,1548831328000
1548831338000.0000000000,12,4.4300000000,A01BBE,5,1548831328000
1548831338015.6201171875,12,2.6300000000,A01BBE,5,1548831328000
1548831338031.2500000000,12,1.2500000000,A01BBE,5,1548831328000
1548831338046.8798828125,12,0.1300000000,A01BBE,5,1548831328000
1548831338062.5000000000,12,-0.9100000000,A01BBE,5,1548831328000
1548831338078.1201171875,12,-2.0000000000,A01BBE,5,1548831328000
1548831338093.7500000000,12,-3.2100000000,A01BBE,5,1548831328000
1548831338109.3798828125,12,-4.5100000000,A01BBE,5,1548831328000
1548831338125.0000000000,12,-5.6500000000,A01BBE,5,1548831328000
1548831338140.6201171875,12,-6.2400000000,A01BBE,5,1548831328000
1548831338156.2500000000,12,-5.7300000000,A01BBE,5,1548831328000
1548831338171.8798828125,12,-3.6200000000,A01BBE,5,1548831328000
1548831338187.5000000000,12,0.3500000000,A01BBE,5,1548831328000
1548831338203.1201171875,12,6.0600000000,A01BBE,5,1548831328000
1548831338218.7500000000,12,12.9800000000,A01BBE,5,1548831328000
1548831338234.3798828125,12,20.3100000000,A01BBE,5,1548831328000
1548831338250.0000000000,12,27.2400000000,A01BBE,5,1548831328000
1548831338265.6201171875,12,33.1000000000,A01BBE,5,1548831328000
1548831338281.2500000000,12,37.5500000000,A01BBE,5,1548831328000
1548831338296.8798828125,12,40.5100000000,A01BBE,5,1548831328000
1548831338312.5000000000,12,42.0900000000,A01BBE,5,1548831328000
1548831338328.1201171875,12,42.4800000000,A01BBE,5,1548831328000
1548831338343.7500000000,12,41.7700000000,A01BBE,5,1548831328000
1548831338359.3798828125,12,40.0600000000,A01BBE,5,1548831328000
1548831338375.0000000000,12,37.4200000000,A01BBE,5,1548831328000
1548831338390.6201171875,12,33.9800000000,A01BBE,5,1548831328000
1548831338406.2500000000,12,29.8900000000,A01BBE,5,1548831328000
1548831338421.8798828125,12,25.2800000000,A01BBE,5,1548831328000
1548831338437.5000000000,12,20.1700000000,A01BBE,5,1548831328000
1548831338453.1201171875,12,14.4700000000,A01BBE,5,1548831328000
1548831338468.7500000000,12,8.1400000000,A01BBE,5,1548831328000
1548831338484.3798828125,12,1.5600000000,A01BBE,5,1548831328000
1548831338500.0000000000,12,-4.3800000000,A01BBE,5,1548831328000
1548831338515.6201171875,12,-8.3500000000,A01BBE,5,1548831328000
1548831338531.2500000000,12,-9.0000000000,A01BBE,5,1548831328000
1548831338546.8798828125,12,-5.6300000000,A01BBE,5,1548831328000
1548831338562.5000000000,12,1.3100000000,A01BBE,5,1548831328000
1548831338578.1201171875,12,10.2000000000,A01BBE,5,1548831328000
1548831338593.7500000000,12,18.6500000000,A01BBE,5,1548831328000
1548831338609.3798828125,12,24.3700000000,A01BBE,5,1548831328000
1548831338625.0000000000,12,25.9200000000,A01BBE,5,1548831328000
1548831338640.6201171875,12,23.1200000000,A01BBE,5,1548831328000
1548831338656.2500000000,12,16.8800000000,A01BBE,5,1548831328000
1548831338671.8798828125,12,8.5900000000,A01BBE,5,1548831328000
1548831338687.5000000000,12,-0.4600000000,A01BBE,5,1548831328000
1548831338703.1201171875,12,-9.5100000000,A01BBE,5,1548831328000
1548831338718.7500000000,12,-18.3800000000,A01BBE,5,1548831328000
1548831338734.3798828125,12,-27.2300000000,A01BBE,5,1548831328000
1548831338750.0000000000,12,-36.1700000000,A01BBE,5,1548831328000
1548831338765.6201171875,12,-45.1200000000,A01BBE,5,1548831328000
1548831338781.2500000000,12,-53.7400000000,A01BBE,5,1548831328000
1548831338796.8798828125,12,-61.6100000000,A01BBE,5,1548831328000
1548831338812.5000000000,12,-68.3200000000,A01BBE,5,1548831328000
1548831338828.1201171875,12,-73.5200000000,A01BBE,5,1548831328000
1548831338843.7500000000,12,-76.9200000000,A01BBE,5,1548831328000
1548831338859.3798828125,12,-78.1700000000,A01BBE,5,1548831328000
1548831338875.0000000000,12,-76.8700000000,A01BBE,5,1548831328000
1548831338890.6201171875,12,-72.7200000000,A01BBE,5,1548831328000
1548831338906.2500000000,12,-65.7400000000,A01BBE,5,1548831328000
1548831338921.8798828125,12,-56.4800000000,A01BBE,5,1548831328000
1548831338937.5000000000,12,-45.9800000000,A01BBE,5,1548831328000
1548831338953.1201171875,12,-35.5800000000,A01BBE,5,1548831328000
1548831338968.7500000000,12,-26.5500000000,A01BBE,5,1548831328000
1548831338984.3798828125,12,-19.7500000000,A01BBE,5,1548831328000
1548831339000.0000000000,12,-15.4000000000,A01BBE,5,1548831328000
1548831339015.6201171875,12,-13.2000000000,A01BBE,5,1548831328000
1548831339031.2500000000,12,-12.5400000000,A01BBE,5,1548831328000
1548831339046.8798828125,12,-12.8000000000,A01BBE,5,1548831328000
1548831339062.5000000000,12,-13.5400000000,A01BBE,5,1548831328000
1548831339078.1201171875,12,-14.4900000000,A01BBE,5,1548831328000
1548831339093.7500000000,12,-15.4400000000,A01BBE,5,1548831328000
1548831339109.3798828125,12,-16.1300000000,A01BBE,5,1548831328000
1548831339125.0000000000,12,-16.2300000000,A01BBE,5,1548831328000
1548831339140.6201171875,12,-15.3900000000,A01BBE,5,1548831328000
1548831339156.2500000000,12,-13.3600000000,A01BBE,5,1548831328000
1548831339171.8798828125,12,-10.1600000000,A01BBE,5,1548831328000
1548831339187.5000000000,12,-6.0600000000,A01BBE,5,1548831328000
1548831339203.1201171875,12,-1.4800000000,A01BBE,5,1548831328000
1548831339218.7500000000,12,3.1700000000,A01BBE,5,1548831328000
1548831339234.3798828125,12,7.5400000000,A01BBE,5,1548831328000
1548831339250.0000000000,12,11.4600000000,A01BBE,5,1548831328000
1548831339265.6201171875,12,14.7800000000,A01BBE,5,1548831328000
1548831339281.2500000000,12,17.3400000000,A01BBE,5,1548831328000
1548831339296.8798828125,12,18.9000000000,A01BBE,5,1548831328000
1548831339312.5000000000,12,19.1600000000,A01BBE,5,1548831328000
1548831339328.1201171875,12,17.9400000000,A01BBE,5,1548831328000
1548831339343.7500000000,12,15.2900000000,A01BBE,5,1548831328000
1548831339359.3798828125,12,11.5600000000,A01BBE,5,1548831328000
1548831339375.0000000000,12,7.3400000000,A01BBE,5,1548831328000
1548831339390.6201171875,12,3.2100000000,A01BBE,5,1548831328000
1548831339406.2500000000,12,-0.4700000000,A01BBE,5,1548831328000
1548831339421.8798828125,12,-3.7400000000,A01BBE,5,1548831328000
1548831339437.5000000000,12,-6.9100000000,A01BBE,5,1548831328000
1548831339453.1201171875,12,-10.5100000000,A01BBE,5,1548831328000
1548831339468.7500000000,12,-14.9800000000,A01BBE,5,1548831328000
1548831339484.3798828125,12,-20.4600000000,A01BBE,5,1548831328000
1548831339500.0000000000,12,-26.7100000000,A01BBE,5,1548831328000
1548831339515.6201171875,12,-33.0400000000,A01BBE,5,1548831328000
1548831339531.2500000000,12,-38.4900000000,A01BBE,5,1548831328000
1548831339546.8798828125,12,-41.9900000000,A01BBE,5,1548831328000
1548831339562.5000000000,12,-42.6300000000,A01BBE,5,1548831328000
1548831339578.1201171875,12,-39.8300000000,A01BBE,5,1548831328000
1548831339593.7500000000,12,-33.6000000000,A01BBE,5,1548831328000
1548831339609.3798828125,12,-24.4600000000,A01BBE,5,1548831328000
1548831339625.0000000000,12,-13.4500000000,A01BBE,5,1548831328000
1548831339640.6201171875,12,-1.8500000000,A01BBE,5,1548831328000
1548831339656.2500000000,12,9.1300000000,A01BBE,5,1548831328000
1548831339671.8798828125,12,18.5100000000,A01BBE,5,1548831328000
1548831339687.5000000000,12,25.7800000000,A01BBE,5,1548831328000
1548831339703.1201171875,12,30.7300000000,A01BBE,5,1548831328000
1548831339718.7500000000,12,33.4500000000,A01BBE,5,1548831328000
1548831339734.3798828125,12,34.1600000000,A01BBE,5,1548831328000
1548831339750.0000000000,12,33.1600000000,A01BBE,5,1548831328000
1548831339765.6201171875,12,30.8000000000,A01BBE,5,1548831328000
1548831339781.2500000000,12,27.4500000000,A01BBE,5,1548831328000
1548831339796.8798828125,12,23.5700000000,A01BBE,5,1548831328000
1548831339812.5000000000,12,19.6300000000,A01BBE,5,1548831328000
1548831339828.1201171875,12,16.1200000000,A01BBE,5,1548831328000
1548831339843.7500000000,12,13.4200000000,A01BBE,5,1548831328000
1548831339859.3798828125,12,11.8200000000,A01BBE,5,1548831328000
1548831339875.0000000000,12,11.4700000000,A01BBE,5,1548831328000
1548831339890.6201171875,12,12.2800000000,A01BBE,5,1548831328000
1548831339906.2500000000,12,14.0200000000,A01BBE,5,1548831328000
1548831339921.8798828125,12,16.2700000000,A01BBE,5,1548831328000
1548831339937.5000000000,12,18.5900000000,A01BBE,5,1548831328000
1548831339953.1201171875,12,20.5800000000,A01BBE,5,1548831328000
1548831339968.7500000000,12,22.0000000000,A01BBE,5,1548831328000
1548831339984.3798828125,12,22.8000000000,A01BBE,5,1548831328000
1548831340000.0000000000,12,23.0300000000,A01BBE,5,1548831328000
1548831340015.6201171875,12,22.7200000000,A01BBE,5,1548831328000
1548831340031.2500000000,12,21.8000000000,A01BBE,5,1548831328000
1548831340046.8798828125,12,20.1000000000,A01BBE,5,1548831328000
1548831340062.5000000000,12,17.4900000000,A01BBE,5,1548831328000
1548831340078.1201171875,12,13.9900000000,A01BBE,5,1548831328000
1548831340093.7500000000,12,9.8500000000,A01BBE,5,1548831328000
1548831340109.3798828125,12,5.5200000000,A01BBE,5,1548831328000
1548831340125.0000000000,12,1.4900000000,A01BBE,5,1548831328000
1548831340140.6201171875,12,-1.9700000000,A01BBE,5,1548831328000
1548831340156.2500000000,12,-4.9000000000,A01BBE,5,1548831328000
1548831340171.8798828125,12,-7.7100000000,A01BBE,5,1548831328000
1548831340187.5000000000,12,-10.9400000000,A01BBE,5,1548831328000
1548831340203.1201171875,12,-15.1000000000,A01BBE,5,1548831328000
1548831340218.7500000000,12,-20.4000000000,A01BBE,5,1548831328000
1548831340234.3798828125,12,-26.6400000000,A01BBE,5,1548831328000
1548831340250.0000000000,12,-33.1600000000,A01BBE,5,1548831328000
1548831340265.6201171875,12,-38.9200000000,A01BBE,5,1548831328000
1548831340281.2500000000,12,-42.6900000000,A01BBE,5,1548831328000
1548831340296.8798828125,12,-43.4300000000,A01BBE,5,1548831328000
1548831340312.5000000000,12,-40.4500000000,A01BBE,5,1548831328000
1548831340328.1201171875,12,-33.7100000000,A01BBE,5,1548831328000
1548831340343.7500000000,12,-23.8900000000,A01BBE,5,1548831328000
1548831340359.3798828125,12,-12.1500000000,A01BBE,5,1548831328000
1548831340375.0000000000,12,0.1000000000,A01BBE,5,1548831328000
1548831340390.6201171875,12,11.5600000000,A01BBE,5,1548831328000
1548831340406.2500000000,12,21.3200000000,A01BBE,5,1548831328000
1548831340421.8798828125,12,28.8600000000,A01BBE,5,1548831328000
1548831340437.5000000000,12,34.0200000000,A01BBE,5,1548831328000
1548831340453.1201171875,12,36.8400000000,A01BBE,5,1548831328000
1548831340468.7500000000,12,37.4600000000,A01BBE,5,1548831328000
1548831340484.3798828125,12,36.1300000000,A01BBE,5,1548831328000
1548831340500.0000000000,12,33.2400000000,A01BBE,5,1548831328000
1548831340515.6201171875,12,29.3400000000,A01BBE,5,1548831328000
1548831340531.2500000000,12,25.0500000000,A01BBE,5,1548831328000
1548831340546.8798828125,12,20.9800000000,A01BBE,5,1548831328000
1548831340562.5000000000,12,17.5700000000,A01BBE,5,1548831328000
1548831340578.1201171875,12,15.1300000000,A01BBE,5,1548831328000
1548831340593.7500000000,12,13.7500000000,A01BBE,5,1548831328000
1548831340609.3798828125,12,13.4200000000,A01BBE,5,1548831328000
1548831340625.0000000000,12,14.0100000000,A01BBE,5,1548831328000
1548831340640.6201171875,12,15.3500000000,A01BBE,5,1548831328000
1548831340656.2500000000,12,17.2100000000,A01BBE,5,1548831328000
1548831340671.8798828125,12,19.3400000000,A01BBE,5,1548831328000
1548831340687.5000000000,12,21.4700000000,A01BBE,5,1548831328000
1548831340703.1201171875,12,23.3600000000,A01BBE,5,1548831328000
1548831340718.7500000000,12,24.8100000000,A01BBE,5,1548831328000
1548831340734.3798828125,12,25.6700000000,A01BBE,5,1548831328000
1548831340750.0000000000,12,25.8100000000,A01BBE,5,1548831328000
1548831340765.6201171875,12,25.1000000000,A01BBE,5,1548831328000
1548831340781.2500000000,12,23.4400000000,A01BBE,5,1548831328000
1548831340796.8798828125,12,20.8000000000,A01BBE,5,1548831328000
1548831340812.5000000000,12,17.2100000000,A01BBE,5,1548831328000
1548831340828.1201171875,12,12.8900000000,A01BBE,5,1548831328000
1548831340843.7500000000,12,8.1900000000,A01BBE,5,1548831328000
1548831340859.3798828125,12,3.4700000000,A01BBE,5,1548831328000
1548831340875.0000000000,12,-0.9300000000,A01BBE,5,1548831328000
1548831340890.6201171875,12,-4.8600000000,A01BBE,5,1548831328000
1548831340906.2500000000,12,-8.4100000000,A01BBE,5,1548831328000
1548831340921.8798828125,12,-11.8900000000,A01BBE,5,1548831328000
1548831340937.5000000000,12,-15.7200000000,A01BBE,5,1548831328000
1548831340953.1201171875,12,-20.3000000000,A01BBE,5,1548831328000
1548831340968.7500000000,12,-25.8000000000,A01BBE,5,1548831328000
1548831340984.3798828125,12,-32.0500000000,A01BBE,5,1548831328000
1548831341000.0000000000,12,-38.4100000000,A01BBE,5,1548831328000
1548831341015.6201171875,12,-43.8800000000,A01BBE,5,1548831328000
1548831341031.2500000000,12,-47.2900000000,A01BBE,5,1548831328000
1548831341046.8798828125,12,-47.6400000000,A01BBE,5,1548831328000
1548831341062.5000000000,12,-44.3500000000,A01BBE,5,1548831328000
1548831341078.1201171875,12,-37.5700000000,A01BBE,5,1548831328000
1548831341093.7500000000,12,-28.0500000000,A01BBE,5,1548831328000
1548831341109.3798828125,12,-17.0000000000,A01BBE,5,1548831328000
1548831341125.0000000000,12,-5.7200000000,A01BBE,5,1548831328000
1548831341140.6201171875,12,4.6900000000,A01BBE,5,1548831328000
1548831341156.2500000000,12,13.5000000000,A01BBE,5,1548831328000
1548831341171.8798828125,12,20.3900000000,A01BBE,5,1548831328000
1548831341187.5000000000,12,25.2800000000,A01BBE,5,1548831328000
1548831341203.1201171875,12,28.2300000000,A01BBE,5,1548831328000
1548831341218.7500000000,12,29.3400000000,A01BBE,5,1548831328000
1548831341234.3798828125,12,28.7400000000,A01BBE,5,1548831328000
1548831341250.0000000000,12,26.7000000000,A01BBE,5,1548831328000
1548831341265.6201171875,12,23.6000000000,A01BBE,5,1548831328000
1548831341281.2500000000,12,19.9500000000,A01BBE,5,1548831328000
1548831341296.8798828125,12,16.3200000000,A01BBE,5,1548831328000
1548831341312.5000000000,12,13.1800000000,A01BBE,5,1548831328000
1548831341328.1201171875,12,10.8600000000,A01BBE,5,1548831328000
1548831341343.7500000000,12,9.5100000000,A01BBE,5,1548831328000
1548831341359.3798828125,12,9.1300000000,A01BBE,5,1548831328000
1548831341375.0000000000,12,9.6600000000,A01BBE,5,1548831328000
1548831341390.6201171875,12,10.9300000000,A01BBE,5,1548831328000
1548831341406.2500000000,12,12.7800000000,A01BBE,5,1548831328000
1548831341421.8798828125,12,14.9100000000,A01BBE,5,1548831328000
1548831341437.5000000000,12,17.0200000000,A01BBE,5,1548831328000
1548831341453.1201171875,12,18.7800000000,A01BBE,5,1548831328000
1548831341468.7500000000,12,19.9400000000,A01BBE,5,1548831328000
1548831341484.3798828125,12,20.3800000000,A01BBE,5,1548831328000
1548831341500.0000000000,12,20.0700000000,A01BBE,5,1548831328000
1548831341515.6201171875,12,19.0100000000,A01BBE,5,1548831328000
1548831341531.2500000000,12,17.1600000000,A01BBE,5,1548831328000
1548831341546.8798828125,12,14.5100000000,A01BBE,5,1548831328000
1548831341562.5000000000,12,11.0300000000,A01BBE,5,1548831328000
1548831341578.1201171875,12,6.8600000000,A01BBE,5,1548831328000
1548831341593.7500000000,12,2.2600000000,A01BBE,5,1548831328000
1548831341609.3798828125,12,-2.4000000000,A01BBE,5,1548831328000
1548831341625.0000000000,12,-6.7400000000,A01BBE,5,1548831328000
1548831341640.6201171875,12,-10.5800000000,A01BBE,5,1548831328000
1548831341656.2500000000,12,-13.9700000000,A01BBE,5,1548831328000
1548831341671.8798828125,12,-17.1900000000,A01BBE,5,1548831328000
1548831341687.5000000000,12,-20.6600000000,A01BBE,5,1548831328000
1548831341703.1201171875,12,-24.7500000000,A01BBE,5,1548831328000
1548831341718.7500000000,12,-29.6200000000,A01BBE,5,1548831328000
1548831341734.3798828125,12,-35.0200000000,A01BBE,5,1548831328000
1548831341750.0000000000,12,-40.3000000000,A01BBE,5,1548831328000
1548831341765.6201171875,12,-44.3900000000,A01BBE,5,1548831328000
1548831341781.2500000000,12,-46.1300000000,A01BBE,5,1548831328000
1548831341796.8798828125,12,-44.5300000000,A01BBE,5,1548831328000
1548831341812.5000000000,12,-39.1700000000,A01BBE,5,1548831328000
1548831341828.1201171875,12,-30.3600000000,A01BBE,5,1548831328000
1548831341843.7500000000,12,-19.0800000000,A01BBE,5,1548831328000
1548831341859.3798828125,12,-6.7500000000,A01BBE,5,1548831328000
1548831341875.0000000000,12,5.2700000000,A01BBE,5,1548831328000
1548831341890.6201171875,12,15.9300000000,A01BBE,5,1548831328000
1548831341906.2500000000,12,24.6800000000,A01BBE,5,1548831328000
1548831341921.8798828125,12,31.3800000000,A01BBE,5,1548831328000
1548831341937.5000000000,12,35.9900000000,A01BBE,5,1548831328000
1548831341953.1201171875,12,38.5000000000,A01BBE,5,1548831328000
1548831341968.7500000000,12,38.8600000000,A01BBE,5,1548831328000
1548831341984.3798828125,12,37.1000000000,A01BBE,5,1548831328000
1548831342000.0000000000,12,33.6000000000,A01BBE,5,1548831328000
1548831342015.6201171875,12,29.0200000000,A01BBE,5,1548831328000
1548831342031.2500000000,12,24.2500000000,A01BBE,5,1548831328000
1548831342046.8798828125,12,20.1300000000,A01BBE,5,1548831328000
1548831342062.5000000000,12,17.1600000000,A01BBE,5,1548831328000
1548831342078.1201171875,12,15.4800000000,A01BBE,5,1548831328000
1548831342093.7500000000,12,14.9100000000,A01BBE,5,1548831328000
1548831342109.3798828125,12,15.1300000000,A01BBE,5,1548831328000
1548831342125.0000000000,12,15.8600000000,A01BBE,5,1548831328000
1548831342140.6201171875,12,16.9600000000,A01BBE,5,1548831328000
1548831342156.2500000000,12,18.3300000000,A01BBE,5,1548831328000
1548831342171.8798828125,12,19.8700000000,A01BBE,5,1548831328000
1548831342187.5000000000,12,21.3700000000,A01BBE,5,1548831328000
1548831342203.1201171875,12,22.4900000000,A01BBE,5,1548831328000
1548831342218.7500000000,12,22.9200000000,A01BBE,5,1548831328000
1548831342234.3798828125,12,22.3600000000,A01BBE,5,1548831328000
1548831342250.0000000000,12,20.7200000000,A01BBE,5,1548831328000
1548831342265.6201171875,12,18.0300000000,A01BBE,5,1548831328000
1548831342281.2500000000,12,14.5500000000,A01BBE,5,1548831328000
1548831342296.8798828125,12,10.5900000000,A01BBE,5,1548831328000
1548831342312.5000000000,12,6.4300000000,A01BBE,5,1548831328000
1548831342328.1201171875,12,2.3200000000,A01BBE,5,1548831328000
1548831342343.7500000000,12,-1.6700000000,A01BBE,5,1548831328000
1548831342359.3798828125,12,-5.5800000000,A01BBE,5,1548831328000
1548831342375.0000000000,12,-9.5500000000,A01BBE,5,1548831328000
1548831342390.6201171875,12,-13.7400000000,A01BBE,5,1548831328000
1548831342406.2500000000,12,-18.3100000000,A01BBE,5,1548831328000
1548831342421.8798828125,12,-23.3800000000,A01BBE,5,1548831328000
1548831342437.5000000000,12,-29.0100000000,A01BBE,5,1548831328000
1548831342453.1201171875,12,-35.0800000000,A01BBE,5,1548831328000
1548831342468.7500000000,12,-41.1600000000,A01BBE,5,1548831328000
1548831342484.3798828125,12,-46.4700000000,A01BBE,5,1548831328000
1548831342500.0000000000,12,-49.9400000000,A01BBE,5,1548831328000
1548831342515.6201171875,12,-50.4200000000,A01BBE,5,1548831328000
1548831342531.2500000000,12,-47.1400000000,A01BBE,5,1548831328000
1548831342546.8798828125,12,-39.9600000000,A01BBE,5,1548831328000
1548831342562.5000000000,12,-29.5800000000,A01BBE,5,1548831328000
1548831342578.1201171875,12,-17.3000000000,A01BBE,5,1548831328000
1548831342593.7500000000,12,-4.7200000000,A01BBE,5,1548831328000
1548831342609.3798828125,12,6.8300000000,A01BBE,5,1548831328000
1548831342625.0000000000,12,16.4900000000,A01BBE,5,1548831328000
1548831342640.6201171875,12,23.9900000000,A01BBE,5,1548831328000
1548831342656.2500000000,12,29.4000000000,A01BBE,5,1548831328000
1548831342671.8798828125,12,32.8500000000,A01BBE,5,1548831328000
1548831342687.5000000000,12,34.3700000000,A01BBE,5,1548831328000
1548831342703.1201171875,12,33.8600000000,A01BBE,5,1548831328000
1548831342718.7500000000,12,31.3300000000,A01BBE,5,1548831328000
1548831342734.3798828125,12,27.0900000000,A01BBE,5,1548831328000
1548831342750.0000000000,12,21.8100000000,A01BBE,5,1548831328000
1548831342765.6201171875,12,16.4800000000,A01BBE,5,1548831328000
1548831342781.2500000000,12,12.0100000000,A01BBE,5,1548831328000
1548831342796.8798828125,12,8.9800000000,A01BBE,5,1548831328000
1548831342812.5000000000,12,7.4500000000,A01BBE,5,1548831328000
1548831342828.1201171875,12,7.0500000000,A01BBE,5,1548831328000
1548831342843.7500000000,12,7.2400000000,A01BBE,5,1548831328000
1548831342859.3798828125,12,7.6300000000,A01BBE,5,1548831328000
1548831342875.0000000000,12,8.1500000000,A01BBE,5,1548831328000
1548831342890.6201171875,12,8.9900000000,A01BBE,5,1548831328000
1548831342906.2500000000,12,10.3500000000,A01BBE,5,1548831328000
1548831342921.8798828125,12,12.1900000000,A01BBE,5,1548831328000
1548831342937.5000000000,12,14.1100000000,A01BBE,5,1548831328000
1548831342953.1201171875,12,15.3700000000,A01BBE,5,1548831328000
1548831342968.7500000000,12,15.2700000000,A01BBE,5,1548831328000
1548831342984.3798828125,12,13.4200000000,A01BBE,5,1548831328000
1548831343000.0000000000,12,9.9400000000,A01BBE,5,1548831328000
1548831343015.6201171875,12,5.4400000000,A01BBE,5,1548831328000
1548831343031.2500000000,12,0.7100000000,A01BBE,5,1548831328000
1548831343046.8798828125,12,-3.5500000000,A01BBE,5,1548831328000
1548831343062.5000000000,12,-7.0300000000,A01BBE,5,1548831328000
1548831343078.1201171875,12,-9.8000000000,A01BBE,5,1548831328000
1548831343093.7500000000,12,-12.2800000000,A01BBE,5,1548831328000
1548831343109.3798828125,12,-14.9900000000,A01BBE,5,1548831328000
1548831343125.0000000000,12,-18.3700000000,A01BBE,5,1548831328000
1548831343140.6201171875,12,-22.7200000000,A01BBE,5,1548831328000
1548831343156.2500000000,12,-28.0900000000,A01BBE,5,1548831328000
1548831343171.8798828125,12,-34.2300000000,A01BBE,5,1548831328000
1548831343187.5000000000,12,-40.5100000000,A01BBE,5,1548831328000
1548831343203.1201171875,12,-45.9800000000,A01BBE,5,1548831328000
1548831343218.7500000000,12,-49.4400000000,A01BBE,5,1548831328000
1548831343234.3798828125,12,-49.7600000000,A01BBE,5,1548831328000
1548831343250.0000000000,12,-46.2200000000,A01BBE,5,1548831328000
1548831343265.6201171875,12,-38.7300000000,A01BBE,5,1548831328000
1548831343281.2500000000,12,-27.9600000000,A01BBE,5,1548831328000
1548831343296.8798828125,12,-15.1400000000,A01BBE,5,1548831328000
1548831343312.5000000000,12,-1.8200000000,A01BBE,5,1548831328000
1548831343328.1201171875,12,10.5700000000,A01BBE,5,1548831328000
1548831343343.7500000000,12,20.9200000000,A01BBE,5,1548831328000
1548831343359.3798828125,12,28.6500000000,A01BBE,5,1548831328000
1548831343375.0000000000,12,33.6300000000,A01BBE,5,1548831328000
1548831343390.6201171875,12,36.1100000000,A01BBE,5,1548831328000
1548831343406.2500000000,12,36.4800000000,A01BBE,5,1548831328000
1548831343421.8798828125,12,35.1300000000,A01BBE,5,1548831328000
1548831343437.5000000000,12,32.3900000000,A01BBE,5,1548831328000
1548831343453.1201171875,12,28.5400000000,A01BBE,5,1548831328000
1548831343468.7500000000,12,23.9200000000,A01BBE,5,1548831328000
1548831343484.3798828125,12,19.0200000000,A01BBE,5,1548831328000
1548831343500.0000000000,12,14.4200000000,A01BBE,5,1548831328000
1548831343515.6201171875,12,10.7300000000,A01BBE,5,1548831328000
1548831343531.2500000000,12,8.3700000000,A01BBE,5,1548831328000
1548831343546.8798828125,12,7.4600000000,A01BBE,5,1548831328000
1548831343562.5000000000,12,7.7700000000,A01BBE,5,1548831328000
1548831343578.1201171875,12,8.8700000000,A01BBE,5,1548831328000
1548831343593.7500000000,12,10.3000000000,A01BBE,5,1548831328000
1548831343609.3798828125,12,11.7400000000,A01BBE,5,1548831328000
1548831343625.0000000000,12,13.0500000000,A01BBE,5,1548831328000
1548831343640.6201171875,12,14.2000000000,A01BBE,5,1548831328000
1548831343656.2500000000,12,15.1100000000,A01BBE,5,1548831328000
1548831343671.8798828125,12,15.5400000000,A01BBE,5,1548831328000
1548831343687.5000000000,12,15.1600000000,A01BBE,5,1548831328000
1548831343703.1201171875,12,13.6200000000,A01BBE,5,1548831328000
1548831343718.7500000000,12,10.8600000000,A01BBE,5,1548831328000
1548831343734.3798828125,12,7.1000000000,A01BBE,5,1548831328000
1548831343750.0000000000,12,2.8800000000,A01BBE,5,1548831328000
1548831343765.6201171875,12,-1.1900000000,A01BBE,5,1548831328000
1548831343781.2500000000,12,-4.7200000000,A01BBE,5,1548831328000
1548831343796.8798828125,12,-7.6300000000,A01BBE,5,1548831328000
1548831343812.5000000000,12,-10.2500000000,A01BBE,5,1548831328000
1548831343828.1201171875,12,-13.0900000000,A01BBE,5,1548831328000
1548831343843.7500000000,12,-16.7300000000,A01BBE,5,1548831328000
1548831343859.3798828125,12,-21.4900000000,A01BBE,5,1548831328000
1548831343875.0000000000,12,-27.3800000000,A01BBE,5,1548831328000
1548831343890.6201171875,12,-33.9100000000,A01BBE,5,1548831328000
1548831343906.2500000000,12,-40.1900000000,A01BBE,5,1548831328000
1548831343921.8798828125,12,-45.0100000000,A01BBE,5,1548831328000
1548831343937.5000000000,12,-47.1400000000,A01BBE,5,1548831328000
1548831343953.1201171875,12,-45.7000000000,A01BBE,5,1548831328000
1548831343968.7500000000,12,-40.3600000000,A01BBE,5,1548831328000
1548831343984.3798828125,12,-31.5200000000,A01BBE,5,1548831328000
1548831344000.0000000000,12,-20.1700000000,A01BBE,5,1548831328000
1548831344015.6201171875,12,-7.6200000000,A01BBE,5,1548831328000
1548831344031.2500000000,12,4.8200000000,A01BBE,5,1548831328000
1548831344046.8798828125,12,16.1100000000,A01BBE,5,1548831328000
1548831344062.5000000000,12,25.5300000000,A01BBE,5,1548831328000
1548831344078.1201171875,12,32.6900000000,A01BBE,5,1548831328000
1548831344093.7500000000,12,37.3500000000,A01BBE,5,1548831328000
1548831344109.3798828125,12,39.4900000000,A01BBE,5,1548831328000
1548831344125.0000000000,12,39.1700000000,A01BBE,5,1548831328000
1548831344140.6201171875,12,36.6500000000,A01BBE,5,1548831328000
1548831344156.2500000000,12,32.4000000000,A01BBE,5,1548831328000
1548831344171.8798828125,12,27.0600000000,A01BBE,5,1548831328000
1548831344187.5000000000,12,21.3500000000,A01BBE,5,1548831328000
1548831344203.1201171875,12,16.0000000000,A01BBE,5,1548831328000
1548831344218.7500000000,12,11.5800000000,A01BBE,5,1548831328000
1548831344234.3798828125,12,8.4300000000,A01BBE,5,1548831328000
1548831344250.0000000000,12,6.6600000000,A01BBE,5,1548831328000
1548831344265.6201171875,12,6.1400000000,A01BBE,5,1548831328000
1548831344281.2500000000,12,6.6100000000,A01BBE,5,1548831328000
1548831344296.8798828125,12,7.8200000000,A01BBE,5,1548831328000
1548831344312.5000000000,12,9.4800000000,A01BBE,5,1548831328000
1548831344328.1201171875,12,11.3700000000,A01BBE,5,1548831328000
1548831344343.7500000000,12,13.1900000000,A01BBE,5,1548831328000
1548831344359.3798828125,12,14.6900000000,A01BBE,5,1548831328000
1548831344375.0000000000,12,15.5600000000,A01BBE,5,1548831328000
1548831344390.6201171875,12,15.5500000000,A01BBE,5,1548831328000
1548831344406.2500000000,12,14.5700000000,A01BBE,5,1548831328000
1548831344421.8798828125,12,12.6800000000,A01BBE,5,1548831328000
1548831344437.5000000000,12,10.0800000000,A01BBE,5,1548831328000
1548831344453.1201171875,12,7.0800000000,A01BBE,5,1548831328000
1548831344468.7500000000,12,3.9500000000,A01BBE,5,1548831328000
1548831344484.3798828125,12,0.8700000000,A01BBE,5,1548831328000
1548831344500.0000000000,12,-2.1100000000,A01BBE,5,1548831328000
1548831344515.6201171875,12,-5.1000000000,A01BBE,5,1548831328000
1548831344531.2500000000,12,-8.3100000000,A01BBE,5,1548831328000
1548831344546.8798828125,12,-12.0800000000,A01BBE,5,1548831328000
1548831344562.5000000000,12,-16.7200000000,A01BBE,5,1548831328000
1548831344578.1201171875,12,-22.4100000000,A01BBE,5,1548831328000
1548831344593.7500000000,12,-28.9700000000,A01BBE,5,1548831328000
1548831344609.3798828125,12,-35.7600000000,A01BBE,5,1548831328000
1548831344625.0000000000,12,-41.6800000000,A01BBE,5,1548831328000
1548831344640.6201171875,12,-45.4000000000,A01BBE,5,1548831328000
1548831344656.2500000000,12,-45.6900000000,A01BBE,5,1548831328000
1548831344671.8798828125,12,-41.8800000000,A01BBE,5,1548831328000
1548831344687.5000000000,12,-34.1100000000,A01BBE,5,1548831328000
1548831344703.1201171875,12,-23.3300000000,A01BBE,5,1548831328000
1548831344718.7500000000,12,-10.9800000000,A01BBE,5,1548831328000
1548831344734.3798828125,12,1.3600000000,A01BBE,5,1548831328000
1548831344750.0000000000,12,12.4000000000,A01BBE,5,1548831328000
1548831344765.6201171875,12,21.3800000000,A01BBE,5,1548831328000
1548831344781.2500000000,12,27.9700000000,A01BBE,5,1548831328000
1548831344796.8798828125,12,32.2400000000,A01BBE,5,1548831328000
1548831344812.5000000000,12,34.3100000000,A01BBE,5,1548831328000
1548831344828.1201171875,12,34.4000000000,A01BBE,5,1548831328000
1548831344843.7500000000,12,32.7000000000,A01BBE,5,1548831328000
1548831344859.3798828125,12,29.4700000000,A01BBE,5,1548831328000
1548831344875.0000000000,12,25.1000000000,A01BBE,5,1548831328000
1548831344890.6201171875,12,20.0800000000,A01BBE,5,1548831328000
1548831344906.2500000000,12,15.0100000000,A01BBE,5,1548831328000
1548831344921.8798828125,12,10.4100000000,A01BBE,5,1548831328000
1548831344937.5000000000,12,6.6700000000,A01BBE,5,1548831328000
1548831344953.1201171875,12,4.0000000000,A01BBE,5,1548831328000
1548831344968.7500000000,12,2.4000000000,A01BBE,5,1548831328000
1548831344984.3798828125,12,1.7900000000,A01BBE,5,1548831328000
1548831345000.0000000000,12,2.0600000000,A01BBE,5,1548831328000
1548831345015.6201171875,12,3.1100000000,A01BBE,5,1548831328000
1548831345031.2500000000,12,4.7800000000,A01BBE,5,1548831328000
1548831345046.8798828125,12,6.8200000000,A01BBE,5,1548831328000
1548831345062.5000000000,12,8.8200000000,A01BBE,5,1548831328000
1548831345078.1201171875,12,10.2400000000,A01BBE,5,1548831328000
1548831345093.7500000000,12,10.6300000000,A01BBE,5,1548831328000
1548831345109.3798828125,12,9.7000000000,A01BBE,5,1548831328000
1548831345125.0000000000,12,7.5300000000,A01BBE,5,1548831328000
1548831345140.6201171875,12,4.4600000000,A01BBE,5,1548831328000
1548831345156.2500000000,12,1.0300000000,A01BBE,5,1548831328000
1548831345171.8798828125,12,-2.3200000000,A01BBE,5,1548831328000
1548831345187.5000000000,12,-5.3800000000,A01BBE,5,1548831328000
1548831345203.1201171875,12,-8.3300000000,A01BBE,5,1548831328000
1548831345218.7500000000,12,-11.5800000000,A01BBE,5,1548831328000
1548831345234.3798828125,12,-15.6900000000,A01BBE,5,1548831328000
1548831345250.0000000000,12,-21.0100000000,A01BBE,5,1548831328000
1548831345265.6201171875,12,-27.4600000000,A01BBE,5,1548831328000
1548831345281.2500000000,12,-34.4200000000,A01BBE,5,1548831328000
1548831345296.8798828125,12,-40.7300000000,A01BBE,5,1548831328000
1548831345312.5000000000,12,-44.9900000000,A01BBE,5,1548831328000
1548831345328.1201171875,12,-45.9500000000,A01BBE,5,1548831328000
1548831345343.7500000000,12,-42.9300000000,A01BBE,5,1548831328000
1548831345359.3798828125,12,-36.0300000000,A01BBE,5,1548831328000
1548831345375.0000000000,12,-26.1100000000,A01BBE,5,1548831328000
1548831345390.6201171875,12,-14.4900000000,A01BBE,5,1548831328000
1548831345406.2500000000,12,-2.5900000000,A01BBE,5,1548831328000
1548831345421.8798828125,12,8.3700000000,A01BBE,5,1548831328000
1548831345437.5000000000,12,17.5800000000,A01BBE,5,1548831328000
1548831345453.1201171875,12,24.5600000000,A01BBE,5,1548831328000
1548831345468.7500000000,12,29.1100000000,A01BBE,5,1548831328000
1548831345484.3798828125,12,31.2400000000,A01BBE,5,1548831328000
1548831345500.0000000000,12,31.1000000000,A01BBE,5,1548831328000
1548831345515.6201171875,12,29.0100000000,A01BBE,5,1548831328000
1548831345531.2500000000,12,25.4500000000,A01BBE,5,1548831328000
1548831345546.8798828125,12,21.0300000000,A01BBE,5,1548831328000
1548831345562.5000000000,12,16.3300000000,A01BBE,5,1548831328000
1548831345578.1201171875,12,11.8500000000,A01BBE,5,1548831328000
1548831345593.7500000000,12,7.9300000000,A01BBE,5,1548831328000
1548831345609.3798828125,12,4.7900000000,A01BBE,5,1548831328000
1548831345625.0000000000,12,2.5500000000,A01BBE,5,1548831328000
1548831345640.6201171875,12,1.3000000000,A01BBE,5,1548831328000
1548831345656.2500000000,12,1.1000000000,A01BBE,5,1548831328000
1548831345671.8798828125,12,1.9000000000,A01BBE,5,1548831328000
1548831345687.5000000000,12,3.5200000000,A01BBE,5,1548831328000
1548831345703.1201171875,12,5.5800000000,A01BBE,5,1548831328000
1548831345718.7500000000,12,7.5900000000,A01BBE,5,1548831328000
1548831345734.3798828125,12,9.0800000000,A01BBE,5,1548831328000
1548831345750.0000000000,12,9.6900000000,A01BBE,5,1548831328000
1548831345765.6201171875,12,9.2900000000,A01BBE,5,1548831328000
1548831345781.2500000000,12,7.9800000000,A01BBE,5,1548831328000
1548831345796.8798828125,12,6.0100000000,A01BBE,5,1548831328000
1548831345812.5000000000,12,3.6300000000,A01BBE,5,1548831328000
1548831345828.1201171875,12,1.0400000000,A01BBE,5,1548831328000
1548831345843.7500000000,12,-1.7400000000,A01BBE,5,1548831328000
1548831345859.3798828125,12,-4.8000000000,A01BBE,5,1548831328000
1548831345875.0000000000,12,-8.3500000000,A01BBE,5,1548831328000
1548831345890.6201171875,12,-12.6100000000,A01BBE,5,1548831328000
1548831345906.2500000000,12,-17.7600000000,A01BBE,5,1548831328000
1548831345921.8798828125,12,-23.8200000000,A01BBE,5,1548831328000
1548831345937.5000000000,12,-30.4300000000,A01BBE,5,1548831328000
1548831345953.1201171875,12,-36.8900000000,A01BBE,5,1548831328000
1548831345968.7500000000,12,-42.0200000000,A01BBE,5,1548831328000
1548831345984.3798828125,12,-44.5100000000,A01BBE,5,1548831328000
1548831346000.0000000000,12,-43.2500000000,A01BBE,5,1548831328000
1548831346015.6201171875,12,-37.7800000000,A01BBE,5,1548831328000
1548831346031.2500000000,12,-28.4800000000,A01BBE,5,1548831328000
1548831346046.8798828125,12,-16.5900000000,A01BBE,5,1548831328000
1548831346062.5000000000,12,-3.8200000000,A01BBE,5,1548831328000
1548831346078.1201171875,12,8.1200000000,A01BBE,5,1548831328000
1548831346093.7500000000,12,17.9800000000,A01BBE,5,1548831328000
1548831346109.3798828125,12,25.1600000000,A01BBE,5,1548831328000
1548831346125.0000000000,12,29.6200000000,A01BBE,5,1548831328000
1548831346140.6201171875,12,31.7000000000,A01BBE,5,1548831328000
1548831346156.2500000000,12,31.8200000000,A01BBE,5,1548831328000
1548831346171.8798828125,12,30.3800000000,A01BBE,5,1548831328000
1548831346187.5000000000,12,27.6900000000,A01BBE,5,1548831328000
1548831346203.1201171875,12,24.0600000000,A01BBE,5,1548831328000
1548831346218.7500000000,12,19.8400000000,A01BBE,5,1548831328000
1548831346234.3798828125,12,15.4200000000,A01BBE,5,1548831328000
1548831346250.0000000000,12,11.1900000000,A01BBE,5,1548831328000
1548831346265.6201171875,12,7.5000000000,A01BBE,5,1548831328000
1548831346281.2500000000,12,4.6500000000,A01BBE,5,1548831328000
1548831346296.8798828125,12,2.8300000000,A01BBE,5,1548831328000
1548831346312.5000000000,12,2.0800000000,A01BBE,5,1548831328000
1548831346328.1201171875,12,2.2800000000,A01BBE,5,1548831328000
1548831346343.7500000000,12,3.1900000000,A01BBE,5,1548831328000
1548831346359.3798828125,12,4.4100000000,A01BBE,5,1548831328000
1548831346375.0000000000,12,5.5400000000,A01BBE,5,1548831328000
1548831346390.6201171875,12,6.2300000000,A01BBE,5,1548831328000
1548831346406.2500000000,12,6.2500000000,A01BBE,5,1548831328000
1548831346421.8798828125,12,5.5600000000,A01BBE,5,1548831328000
1548831346437.5000000000,12,4.2400000000,A01BBE,5,1548831328000
1548831346453.1201171875,12,2.3700000000,A01BBE,5,1548831328000
1548831346468.7500000000,12,0.0200000000,A01BBE,5,1548831328000
1548831346484.3798828125,12,-2.8000000000,A01BBE,5,1548831328000
1548831346500.0000000000,12,-6.1100000000,A01BBE,5,1548831328000
1548831346515.6201171875,12,-9.9000000000,A01BBE,5,1548831328000
1548831346531.2500000000,12,-14.1400000000,A01BBE,5,1548831328000
1548831346546.8798828125,12,-18.8400000000,A01BBE,5,1548831328000
1548831346562.5000000000,12,-24.0400000000,A01BBE,5,1548831328000
1548831346578.1201171875,12,-29.7700000000,A01BBE,5,1548831328000
1548831346593.7500000000,12,-35.8800000000,A01BBE,5,1548831328000
1548831346609.3798828125,12,-41.8300000000,A01BBE,5,1548831328000
1548831346625.0000000000,12,-46.5500000000,A01BBE,5,1548831328000
1548831346640.6201171875,12,-48.6900000000,A01BBE,5,1548831328000
1548831346656.2500000000,12,-46.9900000000,A01BBE,5,1548831328000
1548831346671.8798828125,12,-40.8200000000,A01BBE,5,1548831328000
1548831346687.5000000000,12,-30.5900000000,A01BBE,5,1548831328000
1548831346703.1201171875,12,-17.6800000000,A01BBE,5,1548831328000
1548831346718.7500000000,12,-4.0900000000,A01BBE,5,1548831328000
1548831346734.3798828125,12,8.2600000000,A01BBE,5,1548831328000
1548831346750.0000000000,12,18.0400000000,A01BBE,5,1548831328000
1548831346765.6201171875,12,24.7500000000,A01BBE,5,1548831328000
1548831346781.2500000000,12,28.6400000000,A01BBE,5,1548831328000
1548831346796.8798828125,12,30.2700000000,A01BBE,5,1548831328000
1548831346812.5000000000,12,30.1400000000,A01BBE,5,1548831328000
1548831346828.1201171875,12,28.5700000000,A01BBE,5,1548831328000
1548831346843.7500000000,12,25.6900000000,A01BBE,5,1548831328000
1548831346859.3798828125,12,21.6500000000,A01BBE,5,1548831328000
1548831346875.0000000000,12,16.7800000000,A01BBE,5,1548831328000
1548831346890.6201171875,12,11.6500000000,A01BBE,5,1548831328000
1548831346906.2500000000,12,6.9500000000,A01BBE,5,1548831328000
1548831346921.8798828125,12,3.2900000000,A01BBE,5,1548831328000
1548831346937.5000000000,12,1.0700000000,A01BBE,5,1548831328000
1548831346953.1201171875,12,0.3400000000,A01BBE,5,1548831328000
1548831346968.7500000000,12,0.9100000000,A01BBE,5,1548831328000
1548831346984.3798828125,12,2.4100000000,A01BBE,5,1548831328000
1548831347000.0000000000,12,4.3900000000,A01BBE,5,1548831328000
1548831347015.6201171875,12,6.4200000000,A01BBE,5,1548831328000
1548831347031.2500000000,12,8.1500000000,A01BBE,5,1548831328000
1548831347046.8798828125,12,9.3300000000,A01BBE,5,1548831328000
1548831347062.5000000000,12,9.7800000000,A01BBE,5,1548831328000
1548831347078.1201171875,12,9.4200000000,A01BBE,5,1548831328000
1548831347093.7500000000,12,8.2300000000,A01BBE,5,1548831328000
1548831347109.3798828125,12,6.2600000000,A01BBE,5,1548831328000
1548831347125.0000000000,12,3.6400000000,A01BBE,5,1548831328000
1548831347140.6201171875,12,0.5300000000,A01BBE,5,1548831328000
1548831347156.2500000000,12,-2.8900000000,A01BBE,5,1548831328000
1548831347171.8798828125,12,-6.5500000000,A01BBE,5,1548831328000
1548831347187.5000000000,12,-10.5300000000,A01BBE,5,1548831328000
1548831347203.1201171875,12,-15.0800000000,A01BBE,5,1548831328000
1548831347218.7500000000,12,-20.4800000000,A01BBE,5,1548831328000
1548831347234.3798828125,12,-26.7300000000,A01BBE,5,1548831328000
1548831347250.0000000000,12,-33.3300000000,A01BBE,5,1548831328000
1548831347265.6201171875,12,-39.1400000000,A01BBE,5,1548831328000
1548831347281.2500000000,12,-42.6700000000,A01BBE,5,1548831328000
1548831347296.8798828125,12,-42.5200000000,A01BBE,5,1548831328000
1548831347312.5000000000,12,-38.0000000000,A01BBE,5,1548831328000
1548831347328.1201171875,12,-29.4600000000,A01BBE,5,1548831328000
1548831347343.7500000000,12,-18.2000000000,A01BBE,5,1548831328000
1548831347359.3798828125,12,-6.0400000000,A01BBE,5,1548831328000
1548831347375.0000000000,12,5.3200000000,A01BBE,5,1548831328000
1548831347390.6201171875,12,14.6900000000,A01BBE,5,1548831328000
1548831347406.2500000000,12,21.6200000000,A01BBE,5,1548831328000
1548831347421.8798828125,12,26.1300000000,A01BBE,5,1548831328000
1548831347437.5000000000,12,28.4800000000,A01BBE,5,1548831328000
1548831347453.1201171875,12,28.8700000000,A01BBE,5,1548831328000
1548831347468.7500000000,12,27.4700000000,A01BBE,5,1548831328000
1548831347484.3798828125,12,24.4300000000,A01BBE,5,1548831328000
1548831347500.0000000000,12,20.1000000000,A01BBE,5,1548831328000
1548831347515.6201171875,12,15.0200000000,A01BBE,5,1548831328000
1548831347531.2500000000,12,9.9100000000,A01BBE,5,1548831328000
1548831347546.8798828125,12,5.4500000000,A01BBE,5,1548831328000
1548831347562.5000000000,12,2.1700000000,A01BBE,5,1548831328000
1548831347578.1201171875,12,0.2800000000,A01BBE,5,1548831328000
1548831347593.7500000000,12,-0.3400000000,A01BBE,5,1548831328000
1548831347609.3798828125,12,0.0500000000,A01BBE,5,1548831328000
1548831347625.0000000000,12,1.0700000000,A01BBE,5,1548831328000
1548831347640.6201171875,12,2.4000000000,A01BBE,5,1548831328000
1548831347656.2500000000,12,3.8400000000,A01BBE,5,1548831328000
1548831347671.8798828125,12,5.1800000000,A01BBE,5,1548831328000
1548831347687.5000000000,12,6.2100000000,A01BBE,5,1548831328000
1548831347703.1201171875,12,6.6500000000,A01BBE,5,1548831328000
1548831347718.7500000000,12,6.2700000000,A01BBE,5,1548831328000
1548831347734.3798828125,12,4.9300000000,A01BBE,5,1548831328000
1548831347750.0000000000,12,2.6900000000,A01BBE,5,1548831328000
1548831347765.6201171875,12,-0.1600000000,A01BBE,5,1548831328000
1548831347781.2500000000,12,-3.2300000000,A01BBE,5,1548831328000
1548831347796.8798828125,12,-6.2200000000,A01BBE,5,1548831328000
1548831347812.5000000000,12,-9.0200000000,A01BBE,5,1548831328000
1548831347828.1201171875,12,-11.8600000000,A01BBE,5,1548831328000
1548831347843.7500000000,12,-15.2000000000,A01BBE,5,1548831328000
1548831347859.3798828125,12,-19.5100000000,A01BBE,5,1548831328000
1548831347875.0000000000,12,-25.0200000000,A01BBE,5,1548831328000
1548831347890.6201171875,12,-31.3900000000,A01BBE,5,1548831328000
1548831347906.2500000000,12,-37.6700000000,A01BBE,5,1548831328000
1548831347921.8798828125,12,-42.4300000000,A01BBE,5,1548831328000
1548831347937.5000000000,12,-44.2000000000,A01BBE,5,1548831328000
1548831347953.1201171875,12,-41.9500000000,A01BBE,5,1548831328000
1548831347968.7500000000,12,-35.4800000000,A01BBE,5,1548831328000
1548831347984.3798828125,12,-25.4800000000,A01BBE,5,1548831328000
1548831348000.0000000000,12,-13.3100000000,A01BBE,5,1548831328000
1548831348015.6201171875,12,-0.5800000000,A01BBE,5,1548831328000
1548831348031.2500000000,12,11.3000000000,A01BBE,5,1548831328000
1548831348046.8798828125,12,21.3400000000,A01BBE,5,1548831328000
1548831348062.5000000000,12,29.0000000000,A01BBE,5,1548831328000
1548831348078.1201171875,12,34.0900000000,A01BBE,5,1548831328000
1548831348093.7500000000,12,36.5800000000,A01BBE,5,1548831328000
1548831348109.3798828125,12,36.5600000000,A01BBE,5,1548831328000
1548831348125.0000000000,12,34.2800000000,A01BBE,5,1548831328000
1548831348140.6201171875,12,30.2000000000,A01BBE,5,1548831328000
1548831348156.2500000000,12,24.9900000000,A01BBE,5,1548831328000
1548831348171.8798828125,12,19.4400000000,A01BBE,5,1548831328000
1548831348187.5000000000,12,14.2600000000,A01BBE,5,1548831328000
1548831348203.1201171875,12,9.9800000000,A01BBE,5,1548831328000
1548831348218.7500000000,12,6.8300000000,A01BBE,5,1548831328000
1548831348234.3798828125,12,4.7600000000,A01BBE,5,1548831328000
1548831348250.0000000000,12,3.6300000000,A01BBE,5,1548831328000
1548831348265.6201171875,12,3.2900000000,A01BBE,5,1548831328000
1548831348281.2500000000,12,3.6800000000,A01BBE,5,1548831328000
1548831348296.8798828125,12,4.7600000000,A01BBE,5,1548831328000
1548831348312.5000000000,12,6.4100000000,A01BBE,5,1548831328000
1548831348328.1201171875,12,8.3300000000,A01BBE,5,1548831328000
1548831348343.7500000000,12,10.0400000000,A01BBE,5,1548831328000
1548831348359.3798828125,12,11.0100000000,A01BBE,5,1548831328000
1548831348375.0000000000,12,10.8700000000,A01BBE,5,1548831328000
1548831348390.6201171875,12,9.4700000000,A01BBE,5,1548831328000
1548831348406.2500000000,12,7.0000000000,A01BBE,5,1548831328000
1548831348421.8798828125,12,3.8400000000,A01BBE,5,1548831328000
1548831348437.5000000000,12,0.4100000000,A01BBE,5,1548831328000
1548831348453.1201171875,12,-2.9900000000,A01BBE,5,1548831328000
1548831348468.7500000000,12,-6.2700000000,A01BBE,5,1548831328000
1548831348484.3798828125,12,-9.5000000000,A01BBE,5,1548831328000
1548831348500.0000000000,12,-12.9300000000,A01BBE,5,1548831328000
1548831348515.6201171875,12,-16.8400000000,A01BBE,5,1548831328000
1548831348531.2500000000,12,-21.4800000000,A01BBE,5,1548831328000
1548831348546.8798828125,12,-26.9100000000,A01BBE,5,1548831328000
1548831348562.5000000000,12,-32.8700000000,A01BBE,5,1548831328000
1548831348578.1201171875,12,-38.6900000000,A01BBE,5,1548831328000
1548831348593.7500000000,12,-43.3600000000,A01BBE,5,1548831328000
1548831348609.3798828125,12,-45.6800000000,A01BBE,5,1548831328000
1548831348625.0000000000,12,-44.6600000000,A01BBE,5,1548831328000
1548831348640.6201171875,12,-39.8200000000,A01BBE,5,1548831328000
1548831348656.2500000000,12,-31.3700000000,A01BBE,5,1548831328000
1548831348671.8798828125,12,-20.2400000000,A01BBE,5,1548831328000
1548831348687.5000000000,12,-7.8100000000,A01BBE,5,1548831328000
1548831348703.1201171875,12,4.4200000000,A01BBE,5,1548831328000
1548831348718.7500000000,12,15.1800000000,A01BBE,5,1548831328000
1548831348734.3798828125,12,23.6300000000,A01BBE,5,1548831328000
1548831348750.0000000000,12,29.4700000000,A01BBE,5,1548831328000
1548831348765.6201171875,12,32.7500000000,A01BBE,5,1548831328000
1548831348781.2500000000,12,33.7100000000,A01BBE,5,1548831328000
1548831348796.8798828125,12,32.6700000000,A01BBE,5,1548831328000
1548831348812.5000000000,12,29.9100000000,A01BBE,5,1548831328000
1548831348828.1201171875,12,25.7400000000,A01BBE,5,1548831328000
1548831348843.7500000000,12,20.5900000000,A01BBE,5,1548831328000
1548831348859.3798828125,12,15.0800000000,A01BBE,5,1548831328000
1548831348875.0000000000,12,9.8900000000,A01BBE,5,1548831328000
1548831348890.6201171875,12,5.7000000000,A01BBE,5,1548831328000
1548831348906.2500000000,12,2.9700000000,A01BBE,5,1548831328000
1548831348921.8798828125,12,1.7600000000,A01BBE,5,1548831328000
1548831348937.5000000000,12,1.8300000000,A01BBE,5,1548831328000
1548831348953.1201171875,12,2.7100000000,A01BBE,5,1548831328000
1548831348968.7500000000,12,4.0200000000,A01BBE,5,1548831328000
1548831348984.3798828125,12,5.5000000000,A01BBE,5,1548831328000
1548831349000.0000000000,12,7.1200000000,A01BBE,5,1548831328000
1548831349015.6201171875,12,8.8700000000,A01BBE,5,1548831328000
1548831349031.2500000000,12,10.6500000000,A01BBE,5,1548831328000
1548831349046.8798828125,12,12.1200000000,A01BBE,5,1548831328000
1548831349062.5000000000,12,12.8000000000,A01BBE,5,1548831328000
1548831349078.1201171875,12,12.2400000000,A01BBE,5,1548831328000
1548831349093.7500000000,12,10.2000000000,A01BBE,5,1548831328000
1548831349109.3798828125,12,6.8400000000,A01BBE,5,1548831328000
1548831349125.0000000000,12,2.6500000000,A01BBE,5,1548831328000
1548831349140.6201171875,12,-1.7500000000,A01BBE,5,1548831328000
1548831349156.2500000000,12,-5.8100000000,A01BBE,5,1548831328000
1548831349171.8798828125,12,-9.2800000000,A01BBE,5,1548831328000
1548831349187.5000000000,12,-12.2000000000,A01BBE,5,1548831328000
1548831349203.1201171875,12,-14.9100000000,A01BBE,5,1548831328000
1548831349218.7500000000,12,-17.8600000000,A01BBE,5,1548831328000
1548831349234.3798828125,12,-21.5600000000,A01BBE,5,1548831328000
1548831349250.0000000000,12,-26.3500000000,A01BBE,5,1548831328000
1548831349265.6201171875,12,-32.2700000000,A01BBE,5,1548831328000
1548831349281.2500000000,12,-38.8600000000,A01BBE,5,1548831328000
1548831349296.8798828125,12,-45.0700000000,A01BBE,5,1548831328000
1548831349312.5000000000,12,-49.4900000000,A01BBE,5,1548831328000
1548831349328.1201171875,12,-50.6500000000,A01BBE,5,1548831328000
1548831349343.7500000000,12,-47.6300000000,A01BBE,5,1548831328000
1548831349359.3798828125,12,-40.3400000000,A01BBE,5,1548831328000
1548831349375.0000000000,12,-29.7400000000,A01BBE,5,1548831328000
1548831349390.6201171875,12,-17.3600000000,A01BBE,5,1548831328000
1548831349406.2500000000,12,-4.9000000000,A01BBE,5,1548831328000
1548831349421.8798828125,12,6.3100000000,A01BBE,5,1548831328000
1548831349437.5000000000,12,15.5200000000,A01BBE,5,1548831328000
1548831349453.1201171875,12,22.4800000000,A01BBE,5,1548831328000
1548831349468.7500000000,12,27.2300000000,A01BBE,5,1548831328000
1548831349484.3798828125,12,29.8400000000,A01BBE,5,1548831328000
1548831349500.0000000000,12,30.3600000000,A01BBE,5,1548831328000
1548831349515.6201171875,12,28.8500000000,A01BBE,5,1548831328000
1548831349531.2500000000,12,25.6100000000,A01BBE,5,1548831328000
1548831349546.8798828125,12,21.1600000000,A01BBE,5,1548831328000
1548831349562.5000000000,12,16.2600000000,A01BBE,5,1548831328000
1548831349578.1201171875,12,11.6800000000,A01BBE,5,1548831328000
1548831349593.7500000000,12,8.0500000000,A01BBE,5,1548831328000
1548831349609.3798828125,12,5.7400000000,A01BBE,5,1548831328000
1548831349625.0000000000,12,4.7800000000,A01BBE,5,1548831328000
1548831349640.6201171875,12,4.9900000000,A01BBE,5,1548831328000
1548831349656.2500000000,12,6.0300000000,A01BBE,5,1548831328000
1548831349671.8798828125,12,7.6300000000,A01BBE,5,1548831328000
1548831349687.5000000000,12,9.5100000000,A01BBE,5,1548831328000
1548831349703.1201171875,12,11.5000000000,A01BBE,5,1548831328000
1548831349718.7500000000,12,13.4600000000,A01BBE,5,1548831328000
1548831349734.3798828125,12,15.1900000000,A01BBE,5,1548831328000
1548831349750.0000000000,12,16.4700000000,A01BBE,5,1548831328000
1548831349765.6201171875,12,17.0100000000,A01BBE,5,1548831328000
1548831349781.2500000000,12,16.6200000000,A01BBE,5,1548831328000
1548831349796.8798828125,12,15.2000000000,A01BBE,5,1548831328000
1548831349812.5000000000,12,12.8300000000,A01BBE,5,1548831328000
1548831349828.1201171875,12,9.7100000000,A01BBE,5,1548831328000
1548831349843.7500000000,12,6.1000000000,A01BBE,5,1548831328000
1548831349859.3798828125,12,2.2900000000,A01BBE,5,1548831328000
1548831349875.0000000000,12,-1.5200000000,A01BBE,5,1548831328000
1548831349890.6201171875,12,-5.2100000000,A01BBE,5,1548831328000
1548831349906.2500000000,12,-8.7500000000,A01BBE,5,1548831328000
1548831349921.8798828125,12,-12.2000000000,A01BBE,5,1548831328000
1548831349937.5000000000,12,-15.7600000000,A01BBE,5,1548831328000
1548831349953.1201171875,12,-19.6900000000,A01BBE,5,1548831328000
1548831349968.7500000000,12,-24.2800000000,A01BBE,5,1548831328000
1548831349984.3798828125,12,-29.6700000000,A01BBE,5,1548831328000
1548831350000.0000000000,12,-35.6200000000,A01BBE,5,1548831328000
1548831350015.6201171875,12,-41.3700000000,A01BBE,5,1548831328000
1548831350031.2500000000,12,-45.6800000000,A01BBE,5,1548831328000
1548831350046.8798828125,12,-47.1700000000,A01BBE,5,1548831328000
1548831350062.5000000000,12,-44.7900000000,A01BBE,5,1548831328000
1548831350078.1201171875,12,-38.2500000000,A01BBE,5,1548831328000
1548831350093.7500000000,12,-28.1800000000,A01BBE,5,1548831328000
1548831350109.3798828125,12,-15.9500000000,A01BBE,5,1548831328000
1548831350125.0000000000,12,-3.2600000000,A01BBE,5,1548831328000
1548831350140.6201171875,12,8.4700000000,A01BBE,5,1548831328000
1548831350156.2500000000,12,18.3300000000,A01BBE,5,1548831328000
1548831350171.8798828125,12,26.0100000000,A01BBE,5,1548831328000
1548831350187.5000000000,12,31.5800000000,A01BBE,5,1548831328000
1548831350203.1201171875,12,35.1700000000,A01BBE,5,1548831328000
1548831350218.7500000000,12,36.8700000000,A01BBE,5,1548831328000
1548831350234.3798828125,12,36.6600000000,A01BBE,5,1548831328000
1548831350250.0000000000,12,34.5700000000,A01BBE,5,1548831328000
1548831350265.6201171875,12,30.8100000000,A01BBE,5,1548831328000
1548831350281.2500000000,12,25.8600000000,A01BBE,5,1548831328000
1548831350296.8798828125,12,20.4100000000,A01BBE,5,1548831328000
1548831350312.5000000000,12,15.2000000000,A01BBE,5,1548831328000
1548831350328.1201171875,12,10.9300000000,A01BBE,5,1548831328000
1548831350343.7500000000,12,8.0700000000,A01BBE,5,1548831328000
1548831350359.3798828125,12,6.7900000000,A01BBE,5,1548831328000
1548831350375.0000000000,12,6.9400000000,A01BBE,5,1548831328000
1548831350390.6201171875,12,8.1000000000,A01BBE,5,1548831328000
1548831350406.2500000000,12,9.7300000000,A01BBE,5,1548831328000
1548831350421.8798828125,12,11.3500000000,A01BBE,5,1548831328000
1548831350437.5000000000,12,12.6800000000,A01BBE,5,1548831328000
1548831350453.1201171875,12,13.6400000000,A01BBE,5,1548831328000
1548831350468.7500000000,12,14.3400000000,A01BBE,5,1548831328000
1548831350484.3798828125,12,14.8100000000,A01BBE,5,1548831328000
1548831350500.0000000000,12,14.9900000000,A01BBE,5,1548831328000
1548831350515.6201171875,12,14.6400000000,A01BBE,5,1548831328000
1548831350531.2500000000,12,13.4800000000,A01BBE,5,1548831328000
1548831350546.8798828125,12,11.3200000000,A01BBE,5,1548831328000
1548831350562.5000000000,12,8.2000000000,A01BBE,5,1548831328000
1548831350578.1201171875,12,4.3700000000,A01BBE,5,1548831328000
1548831350593.7500000000,12,0.1800000000,A01BBE,5,1548831328000
1548831350609.3798828125,12,-4.0400000000,A01BBE,5,1548831328000
1548831350625.0000000000,12,-8.1200000000,A01BBE,5,1548831328000
1548831350640.6201171875,12,-12.0000000000,A01BBE,5,1548831328000
1548831350656.2500000000,12,-15.7400000000,A01BBE,5,1548831328000
1548831350671.8798828125,12,-19.4300000000,A01BBE,5,1548831328000
1548831350687.5000000000,12,-23.1800000000,A01BBE,5,1548831328000
1548831350703.1201171875,12,-27.1900000000,A01BBE,5,1548831328000
1548831350718.7500000000,12,-31.6600000000,A01BBE,5,1548831328000
1548831350734.3798828125,12,-36.6800000000,A01BBE,5,1548831328000
1548831350750.0000000000,12,-42.0000000000,A01BBE,5,1548831328000
1548831350765.6201171875,12,-46.8500000000,A01BBE,5,1548831328000
1548831350781.2500000000,12,-50.0500000000,A01BBE,5,1548831328000
1548831350796.8798828125,12,-50.3100000000,A01BBE,5,1548831328000
1548831350812.5000000000,12,-46.6900000000,A01BBE,5,1548831328000
1548831350828.1201171875,12,-39.0500000000,A01BBE,5,1548831328000
1548831350843.7500000000,12,-28.1700000000,A01BBE,5,1548831328000
1548831350859.3798828125,12,-15.4800000000,A01BBE,5,1548831328000
1548831350875.0000000000,12,-2.6000000000,A01BBE,5,1548831328000
1548831350890.6201171875,12,9.0900000000,A01BBE,5,1548831328000
1548831350906.2500000000,12,18.7500000000,A01BBE,5,1548831328000
1548831350921.8798828125,12,26.1000000000,A01BBE,5,1548831328000
1548831350937.5000000000,12,31.1500000000,A01BBE,5,1548831328000
1548831350953.1201171875,12,34.0400000000,A01BBE,5,1548831328000
1548831350968.7500000000,12,34.8700000000,A01BBE,5,1548831328000
1548831350984.3798828125,12,33.7400000000,A01BBE,5,1548831328000
1548831351000.0000000000,12,30.8900000000,A01BBE,5,1548831328000
1548831351015.6201171875,12,26.7000000000,A01BBE,5,1548831328000
1548831351031.2500000000,12,21.7400000000,A01BBE,5,1548831328000
1548831351046.8798828125,12,16.6600000000,A01BBE,5,1548831328000
1548831351062.5000000000,12,12.1200000000,A01BBE,5,1548831328000
1548831351078.1201171875,12,8.6000000000,A01BBE,5,1548831328000
1548831351093.7500000000,12,6.4200000000,A01BBE,5,1548831328000
1548831351109.3798828125,12,5.6400000000,A01BBE,5,1548831328000
1548831351125.0000000000,12,6.1000000000,A01BBE,5,1548831328000
1548831351140.6201171875,12,7.4800000000,A01BBE,5,1548831328000
1548831351156.2500000000,12,9.3700000000,A01BBE,5,1548831328000
1548831351171.8798828125,12,11.3900000000,A01BBE,5,1548831328000
1548831351187.5000000000,12,13.2300000000,A01BBE,5,1548831328000
1548831351203.1201171875,12,14.7400000000,A01BBE,5,1548831328000
1548831351218.7500000000,12,15.8100000000,A01BBE,5,1548831328000
1548831351234.3798828125,12,16.4000000000,A01BBE,5,1548831328000
1548831351250.0000000000,12,16.4300000000,A01BBE,5,1548831328000
1548831351265.6201171875,12,15.8200000000,A01BBE,5,1548831328000
1548831351281.2500000000,12,14.4700000000,A01BBE,5,1548831328000
1548831351296.8798828125,12,12.3600000000,A01BBE,5,1548831328000
1548831351312.5000000000,12,9.5800000000,A01BBE,5,1548831328000
1548831351328.1201171875,12,6.2800000000,A01BBE,5,1548831328000
1548831351343.7500000000,12,2.6800000000,A01BBE,5,1548831328000
1548831351359.3798828125,12,-1.0600000000,A01BBE,5,1548831328000
1548831351375.0000000000,12,-4.8300000000,A01BBE,5,1548831328000
1548831351390.6201171875,12,-8.5400000000,A01BBE,5,1548831328000
1548831351406.2500000000,12,-12.1200000000,A01BBE,5,1548831328000
1548831351421.8798828125,12,-15.5100000000,A01BBE,5,1548831328000
1548831351437.5000000000,12,-18.7500000000,A01BBE,5,1548831328000
1548831351453.1201171875,12,-21.9400000000,A01BBE,5,1548831328000
1548831351468.7500000000,12,-25.3300000000,A01BBE,5,1548831328000
1548831351484.3798828125,12,-29.2100000000,A01BBE,5,1548831328000
1548831351500.0000000000,12,-33.7700000000,A01BBE,5,1548831328000
1548831351515.6201171875,12,-38.8900000000,A01BBE,5,1548831328000
1548831351531.2500000000,12,-44.0400000000,A01BBE,5,1548831328000
1548831351546.8798828125,12,-48.2300000000,A01BBE,5,1548831328000
1548831351562.5000000000,12,-50.2300000000,A01BBE,5,1548831328000
1548831351578.1201171875,12,-48.9400000000,A01BBE,5,1548831328000
1548831351593.7500000000,12,-43.7700000000,A01BBE,5,1548831328000
1548831351609.3798828125,12,-34.8700000000,A01BBE,5,1548831328000
1548831351625.0000000000,12,-23.2300000000,A01BBE,5,1548831328000
1548831351640.6201171875,12,-10.3200000000,A01BBE,5,1548831328000
1548831351656.2500000000,12,2.2800000000,A01BBE,5,1548831328000
1548831351671.8798828125,12,13.2700000000,A01BBE,5,1548831328000
1548831351687.5000000000,12,21.8900000000,A01BBE,5,1548831328000
1548831351703.1201171875,12,27.9100000000,A01BBE,5,1548831328000
1548831351718.7500000000,12,31.4200000000,A01BBE,5,1548831328000
1548831351734.3798828125,12,32.6700000000,A01BBE,5,1548831328000
1548831351750.0000000000,12,31.9900000000,A01BBE,5,1548831328000
1548831351765.6201171875,12,29.7300000000,A01BBE,5,1548831328000
1548831351781.2500000000,12,26.2800000000,A01BBE,5,1548831328000
1548831351796.8798828125,12,22.1200000000,A01BBE,5,1548831328000
1548831351812.5000000000,12,17.7200000000,A01BBE,5,1548831328000
1548831351828.1201171875,12,13.4900000000,A01BBE,5,1548831328000
1548831351843.7500000000,12,9.7700000000,A01BBE,5,1548831328000
1548831351859.3798828125,12,6.8200000000,A01BBE,5,1548831328000
1548831351875.0000000000,12,4.9100000000,A01BBE,5,1548831328000
1548831351890.6201171875,12,4.2100000000,A01BBE,5,1548831328000
1548831351906.2500000000,12,4.8300000000,A01BBE,5,1548831328000
1548831351921.8798828125,12,6.6600000000,A01BBE,5,1548831328000
1548831351937.5000000000,12,9.4200000000,A01BBE,5,1548831328000
1548831351953.1201171875,12,12.6400000000,A01BBE,5,1548831328000
1548831351968.7500000000,12,15.8300000000,A01BBE,5,1548831328000
1548831351984.3798828125,12,18.5500000000,A01BBE,5,1548831328000
1548831352000.0000000000,12,20.4700000000,A01BBE,5,1548831328000
1548831352015.6201171875,12,21.4300000000,A01BBE,5,1548831328000
1548831352031.2500000000,12,21.4100000000,A01BBE,5,1548831328000
1548831352046.8798828125,12,20.4900000000,A01BBE,5,1548831328000
1548831352062.5000000000,12,18.8200000000,A01BBE,5,1548831328000
1548831352078.1201171875,12,16.5700000000,A01BBE,5,1548831328000
1548831352093.7500000000,12,13.8700000000,A01BBE,5,1548831328000
1548831352109.3798828125,12,10.7700000000,A01BBE,5,1548831328000
1548831352125.0000000000,12,7.3000000000,A01BBE,5,1548831328000
1548831352140.6201171875,12,3.4600000000,A01BBE,5,1548831328000
1548831352156.2500000000,12,-0.6600000000,A01BBE,5,1548831328000
1548831352171.8798828125,12,-4.8900000000,A01BBE,5,1548831328000
1548831352187.5000000000,12,-9.0200000000,A01BBE,5,1548831328000
1548831352203.1201171875,12,-12.8600000000,A01BBE,5,1548831328000
1548831352218.7500000000,12,-16.3500000000,A01BBE,5,1548831328000
1548831352234.3798828125,12,-19.6100000000,A01BBE,5,1548831328000
1548831352250.0000000000,12,-22.9200000000,A01BBE,5,1548831328000
1548831352265.6201171875,12,-26.6400000000,A01BBE,5,1548831328000
1548831352281.2500000000,12,-31.0600000000,A01BBE,5,1548831328000
1548831352296.8798828125,12,-36.2700000000,A01BBE,5,1548831328000
1548831352312.5000000000,12,-41.9700000000,A01BBE,5,1548831328000
1548831352328.1201171875,12,-47.4500000000,A01BBE,5,1548831328000
1548831352343.7500000000,12,-51.6200000000,A01BBE,5,1548831328000
1548831352359.3798828125,12,-53.3000000000,A01BBE,5,1548831328000
1548831352375.0000000000,12,-51.5700000000,A01BBE,5,1548831328000
1548831352390.6201171875,12,-46.0500000000,A01BBE,5,1548831328000
1548831352406.2500000000,12,-37.1200000000,A01BBE,5,1548831328000
1548831352421.8798828125,12,-25.7900000000,A01BBE,5,1548831328000
1548831352437.5000000000,12,-13.4500000000,A01BBE,5,1548831328000
1548831352453.1201171875,12,-1.4500000000,A01BBE,5,1548831328000
1548831352468.7500000000,12,9.0800000000,A01BBE,5,1548831328000
1548831352484.3798828125,12,17.4600000000,A01BBE,5,1548831328000
1548831352500.0000000000,12,23.3500000000,A01BBE,5,1548831328000
1548831352515.6201171875,12,26.7500000000,A01BBE,5,1548831328000
1548831352531.2500000000,12,27.8200000000,A01BBE,5,1548831328000
1548831352546.8798828125,12,26.8800000000,A01BBE,5,1548831328000
1548831352562.5000000000,12,24.3200000000,A01BBE,5,1548831328000
1548831352578.1201171875,12,20.5900000000,A01BBE,5,1548831328000
1548831352593.7500000000,12,16.1300000000,A01BBE,5,1548831328000
1548831352609.3798828125,12,11.4000000000,A01BBE,5,1548831328000
1548831352625.0000000000,12,6.8300000000,A01BBE,5,1548831328000
1548831352640.6201171875,12,2.8800000000,A01BBE,5,1548831328000
1548831352656.2500000000,12,-0.0600000000,A01BBE,5,1548831328000
1548831352671.8798828125,12,-1.6800000000,A01BBE,5,1548831328000
1548831352687.5000000000,12,-1.8600000000,A01BBE,5,1548831328000
1548831352703.1201171875,12,-0.7500000000,A01BBE,5,1548831328000
1548831352718.7500000000,12,1.3200000000,A01BBE,5,1548831328000
1548831352734.3798828125,12,3.8900000000,A01BBE,5,1548831328000
1548831352750.0000000000,12,6.5800000000,A01BBE,5,1548831328000
1548831352765.6201171875,12,9.1400000000,A01BBE,5,1548831328000
1548831352781.2500000000,12,11.4700000000,A01BBE,5,1548831328000
1548831352796.8798828125,12,13.5200000000,A01BBE,5,1548831328000
1548831352812.5000000000,12,15.2100000000,A01BBE,5,1548831328000
1548831352828.1201171875,12,16.3200000000,A01BBE,5,1548831328000
1548831352843.7500000000,12,16.5400000000,A01BBE,5,1548831328000
1548831352859.3798828125,12,15.6100000000,A01BBE,5,1548831328000
1548831352875.0000000000,12,13.4400000000,A01BBE,5,1548831328000
1548831352890.6201171875,12,10.1800000000,A01BBE,5,1548831328000
1548831352906.2500000000,12,6.2200000000,A01BBE,5,1548831328000
1548831352921.8798828125,12,2.0100000000,A01BBE,5,1548831328000
1548831352937.5000000000,12,-2.0900000000,A01BBE,5,1548831328000
1548831352953.1201171875,12,-5.8900000000,A01BBE,5,1548831328000
1548831352968.7500000000,12,-9.4500000000,A01BBE,5,1548831328000
1548831352984.3798828125,12,-12.9800000000,A01BBE,5,1548831328000
1548831353000.0000000000,12,-16.7300000000,A01BBE,5,1548831328000
1548831353015.6201171875,12,-20.9100000000,A01BBE,5,1548831328000
1548831353031.2500000000,12,-25.6100000000,A01BBE,5,1548831328000
1548831353046.8798828125,12,-30.7300000000,A01BBE,5,1548831328000
1548831353062.5000000000,12,-35.9200000000,A01BBE,5,1548831328000
1548831353078.1201171875,12,-40.5900000000,A01BBE,5,1548831328000
1548831353093.7500000000,12,-43.8900000000,A01BBE,5,1548831328000
1548831353109.3798828125,12,-44.8800000000,A01BBE,5,1548831328000
1548831353125.0000000000,12,-42.8300000000,A01BBE,5,1548831328000
1548831353140.6201171875,12,-37.3900000000,A01BBE,5,1548831328000
1548831353156.2500000000,12,-28.8200000000,A01BBE,5,1548831328000
1548831353171.8798828125,12,-17.9200000000,A01BBE,5,1548831328000
1548831353187.5000000000,12,-5.8700000000,A01BBE,5,1548831328000
1548831353203.1201171875,12,6.0700000000,A01BBE,5,1548831328000
1548831353218.7500000000,12,16.7900000000,A01BBE,5,1548831328000
1548831353234.3798828125,12,25.5300000000,A01BBE,5,1548831328000
1548831353250.0000000000,12,31.8900000000,A01BBE,5,1548831328000
1548831353265.6201171875,12,35.7600000000,A01BBE,5,1548831328000
1548831353281.2500000000,12,37.2600000000,A01BBE,5,1548831328000
1548831353296.8798828125,12,36.6400000000,A01BBE,5,1548831328000
1548831353312.5000000000,12,34.2700000000,A01BBE,5,1548831328000
1548831353328.1201171875,12,30.6000000000,A01BBE,5,1548831328000
1548831353343.7500000000,12,26.1500000000,A01BBE,5,1548831328000
1548831353359.3798828125,12,21.4400000000,A01BBE,5,1548831328000
1548831353375.0000000000,12,16.9400000000,A01BBE,5,1548831328000
1548831353390.6201171875,12,13.0100000000,A01BBE,5,1548831328000
1548831353406.2500000000,12,9.8800000000,A01BBE,5,1548831328000
1548831353421.8798828125,12,7.7100000000,A01BBE,5,1548831328000
1548831353437.5000000000,12,6.5500000000,A01BBE,5,1548831328000
1548831353453.1201171875,12,6.3800000000,A01BBE,5,1548831328000
1548831353468.7500000000,12,7.1000000000,A01BBE,5,1548831328000
1548831353484.3798828125,12,8.5200000000,A01BBE,5,1548831328000
1548831353500.0000000000,12,10.3700000000,A01BBE,5,1548831328000
1548831353515.6201171875,12,12.3600000000,A01BBE,5,1548831328000
1548831353531.2500000000,12,14.2400000000,A01BBE,5,1548831328000
1548831353546.8798828125,12,15.7800000000,A01BBE,5,1548831328000
1548831353562.5000000000,12,16.7800000000,A01BBE,5,1548831328000
1548831353578.1201171875,12,16.9900000000,A01BBE,5,1548831328000
1548831353593.7500000000,12,16.1400000000,A01BBE,5,1548831328000
1548831353609.3798828125,12,14.0400000000,A01BBE,5,1548831328000
1548831353625.0000000000,12,10.6700000000,A01BBE,5,1548831328000
1548831353640.6201171875,12,6.2700000000,A01BBE,5,1548831328000
1548831353656.2500000000,12,1.3600000000,A01BBE,5,1548831328000
1548831353671.8798828125,12,-3.4700000000,A01BBE,5,1548831328000
1548831353687.5000000000,12,-7.7900000000,A01BBE,5,1548831328000
1548831353703.1201171875,12,-11.4400000000,A01BBE,5,1548831328000
1548831353718.7500000000,12,-14.7200000000,A01BBE,5,1548831328000
1548831353734.3798828125,12,-18.1700000000,A01BBE,5,1548831328000
1548831353750.0000000000,12,-22.4200000000,A01BBE,5,1548831328000
1548831353765.6201171875,12,-27.8000000000,A01BBE,5,1548831328000
1548831353781.2500000000,12,-34.1800000000,A01BBE,5,1548831328000
1548831353796.8798828125,12,-40.8000000000,A01BBE,5,1548831328000
1548831353812.5000000000,12,-46.4200000000,A01BBE,5,1548831328000
1548831353828.1201171875,12,-49.6400000000,A01BBE,5,1548831328000
1548831353843.7500000000,12,-49.3500000000,A01BBE,5,1548831328000
1548831353859.3798828125,12,-45.1100000000,A01BBE,5,1548831328000
1548831353875.0000000000,12,-37.2400000000,A01BBE,5,1548831328000
1548831353890.6201171875,12,-26.7500000000,A01BBE,5,1548831328000
1548831353906.2500000000,12,-14.9700000000,A01BBE,5,1548831328000
1548831353921.8798828125,12,-3.2000000000,A01BBE,5,1548831328000
1548831353937.5000000000,12,7.6100000000,A01BBE,5,1548831328000
1548831353953.1201171875,12,16.8600000000,A01BBE,5,1548831328000
1548831353968.7500000000,12,24.2000000000,A01BBE,5,1548831328000
1548831353984.3798828125,12,29.4400000000,A01BBE,5,1548831328000
1548831354000.0000000000,12,32.3900000000,A01BBE,5,1548831328000
1548831354015.6201171875,12,33.0300000000,A01BBE,5,1548831328000
1548831354031.2500000000,12,31.4800000000,A01BBE,5,1548831328000
1548831354046.8798828125,12,28.1300000000,A01BBE,5,1548831328000
1548831354062.5000000000,12,23.6000000000,A01BBE,5,1548831328000
1548831354078.1201171875,12,18.5700000000,A01BBE,5,1548831328000
1548831354093.7500000000,12,13.6300000000,A01BBE,5,1548831328000
1548831354109.3798828125,12,9.1500000000,A01BBE,5,1548831328000
1548831354125.0000000000,12,5.3800000000,A01BBE,5,1548831328000
1548831354140.6201171875,12,2.4500000000,A01BBE,5,1548831328000
1548831354156.2500000000,12,0.5100000000,A01BBE,5,1548831328000
1548831354171.8798828125,12,-0.3100000000,A01BBE,5,1548831328000
1548831354187.5000000000,12,0.0800000000,A01BBE,5,1548831328000
1548831354203.1201171875,12,1.6100000000,A01BBE,5,1548831328000
1548831354218.7500000000,12,4.0100000000,A01BBE,5,1548831328000
1548831354234.3798828125,12,6.8500000000,A01BBE,5,1548831328000
1548831354250.0000000000,12,9.6400000000,A01BBE,5,1548831328000
1548831354265.6201171875,12,11.9700000000,A01BBE,5,1548831328000
1548831354281.2500000000,12,13.5000000000,A01BBE,5,1548831328000
1548831354296.8798828125,12,14.0200000000,A01BBE,5,1548831328000
1548831354312.5000000000,12,13.3600000000,A01BBE,5,1548831328000
1548831354328.1201171875,12,11.4100000000,A01BBE,5,1548831328000
1548831354343.7500000000,12,8.1900000000,A01BBE,5,1548831328000
1548831354359.3798828125,12,3.8800000000,A01BBE,5,1548831328000
1548831354375.0000000000,12,-1.1500000000,A01BBE,5,1548831328000
1548831354390.6201171875,12,-6.4100000000,A01BBE,5,1548831328000
1548831354406.2500000000,12,-11.3900000000,A01BBE,5,1548831328000
1548831354421.8798828125,12,-15.7200000000,A01BBE,5,1548831328000
1548831354437.5000000000,12,-19.2200000000,A01BBE,5,1548831328000
1548831354453.1201171875,12,-21.9300000000,A01BBE,5,1548831328000
1548831354468.7500000000,12,-24.1600000000,A01BBE,5,1548831328000
1548831354484.3798828125,12,-26.3700000000,A01BBE,5,1548831328000
1548831354500.0000000000,12,-29.0800000000,A01BBE,5,1548831328000
1548831354515.6201171875,12,-32.5300000000,A01BBE,5,1548831328000
1548831354531.2500000000,12,-36.4900000000,A01BBE,5,1548831328000
1548831354546.8798828125,12,-40.2000000000,A01BBE,5,1548831328000
1548831354562.5000000000,12,-42.4800000000,A01BBE,5,1548831328000
1548831354578.1201171875,12,-42.2000000000,A01BBE,5,1548831328000
1548831354593.7500000000,12,-38.7100000000,A01BBE,5,1548831328000
1548831354609.3798828125,12,-32.1600000000,A01BBE,5,1548831328000
1548831354625.0000000000,12,-23.4800000000,A01BBE,5,1548831328000
1548831354640.6201171875,12,-13.9500000000,A01BBE,5,1548831328000
1548831354656.2500000000,12,-4.8100000000,A01BBE,5,1548831328000
1548831354671.8798828125,12,3.1200000000,A01BBE,5,1548831328000
1548831354687.5000000000,12,9.5700000000,A01BBE,5,1548831328000
1548831354703.1201171875,12,14.5200000000,A01BBE,5,1548831328000
1548831354718.7500000000,12,18.0300000000,A01BBE,5,1548831328000
1548831354734.3798828125,12,19.9900000000,A01BBE,5,1548831328000
1548831354750.0000000000,12,20.2000000000,A01BBE,5,1548831328000
1548831354765.6201171875,12,18.5400000000,A01BBE,5,1548831328000
1548831354781.2500000000,12,15.2200000000,A01BBE,5,1548831328000
1548831354796.8798828125,12,10.8800000000,A01BBE,5,1548831328000
1548831354812.5000000000,12,6.3800000000,A01BBE,5,1548831328000
1548831354828.1201171875,12,2.5800000000,A01BBE,5,1548831328000
1548831354843.7500000000,12,0.0500000000,A01BBE,5,1548831328000
1548831354859.3798828125,12,-1.1200000000,A01BBE,5,1548831328000
1548831354875.0000000000,12,-1.1600000000,A01BBE,5,1548831328000
1548831354890.6201171875,12,-0.5200000000,A01BBE,5,1548831328000
1548831354906.2500000000,12,0.4000000000,A01BBE,5,1548831328000
1548831354921.8798828125,12,1.4100000000,A01BBE,5,1548831328000
1548831354937.5000000000,12,2.4800000000,A01BBE,5,1548831328000
1548831354953.1201171875,12,3.7100000000,A01BBE,5,1548831328000
1548831354968.7500000000,12,5.1000000000,A01BBE,5,1548831328000
1548831354984.3798828125,12,6.5500000000,A01BBE,5,1548831328000
1548831355000.0000000000,12,7.7600000000,A01BBE,5,1548831328000
1548831355015.6201171875,12,8.3000000000,A01BBE,5,1548831328000
1548831355031.2500000000,12,7.8200000000,A01BBE,5,1548831328000
1548831355046.8798828125,12,6.1800000000,A01BBE,5,1548831328000
1548831355062.5000000000,12,3.5600000000,A01BBE,5,1548831328000
1548831355078.1201171875,12,0.3400000000,A01BBE,5,1548831328000
1548831355093.7500000000,12,-2.9800000000,A01BBE,5,1548831328000
1548831355109.3798828125,12,-6.1000000000,A01BBE,5,1548831328000
1548831355125.0000000000,12,-9.0200000000,A01BBE,5,1548831328000
1548831355140.6201171875,12,-12.0300000000,A01BBE,5,1548831328000
1548831355156.2500000000,12,-15.5500000000,A01BBE,5,1548831328000
1548831355171.8798828125,12,-19.9000000000,A01BBE,5,1548831328000
1548831355187.5000000000,12,-25.1000000000,A01BBE,5,1548831328000
1548831355203.1201171875,12,-30.7800000000,A01BBE,5,1548831328000
1548831355218.7500000000,12,-36.2300000000,A01BBE,5,1548831328000
1548831355234.3798828125,12,-40.4600000000,A01BBE,5,1548831328000
1548831355250.0000000000,12,-42.4700000000,A01BBE,5,1548831328000
1548831355265.6201171875,12,-41.3800000000,A01BBE,5,1548831328000
1548831355281.2500000000,12,-36.6900000000,A01BBE,5,1548831328000
1548831355296.8798828125,12,-28.4900000000,A01BBE,5,1548831328000
1548831355312.5000000000,12,-17.4800000000,A01BBE,5,1548831328000
1548831355328.1201171875,12,-4.9200000000,A01BBE,5,1548831328000
1548831355343.7500000000,12,7.6800000000,A01BBE,5,1548831328000
1548831355359.3798828125,12,18.9000000000,A01BBE,5,1548831328000
1548831355375.0000000000,12,27.7800000000,A01BBE,5,1548831328000
1548831355390.6201171875,12,33.9000000000,A01BBE,5,1548831328000
1548831355406.2500000000,12,37.4100000000,A01BBE,5,1548831328000
1548831355421.8798828125,12,38.8100000000,A01BBE,5,1548831328000
1548831355437.5000000000,12,38.6600000000,A01BBE,5,1548831328000
1548831355453.1201171875,12,37.4000000000,A01BBE,5,1548831328000
1548831355468.7500000000,12,35.2600000000,A01BBE,5,1548831328000
1548831355484.3798828125,12,32.2800000000,A01BBE,5,1548831328000
1548831355500.0000000000,12,28.4900000000,A01BBE,5,1548831328000
1548831355515.6201171875,12,24.0600000000,A01BBE,5,1548831328000
1548831355531.2500000000,12,19.3600000000,A01BBE,5,1548831328000
1548831355546.8798828125,12,14.9300000000,A01BBE,5,1548831328000
1548831355562.5000000000,12,11.3300000000,A01BBE,5,1548831328000
1548831355578.1201171875,12,8.9700000000,A01BBE,5,1548831328000
1548831355593.7500000000,12,7.9400000000,A01BBE,5,1548831328000
1548831355609.3798828125,12,8.0300000000,A01BBE,5,1548831328000
1548831355625.0000000000,12,8.8300000000,A01BBE,5,1548831328000
1548831355640.6201171875,12,9.8600000000,A01BBE,5,1548831328000
1548831355656.2500000000,12,10.6900000000,A01BBE,5,1548831328000
1548831355671.8798828125,12,11.0200000000,A01BBE,5,1548831328000
1548831355687.5000000000,12,10.6800000000,A01BBE,5,1548831328000
1548831355703.1201171875,12,9.5500000000,A01BBE,5,1548831328000
1548831355718.7500000000,12,7.6000000000,A01BBE,5,1548831328000
1548831355734.3798828125,12,4.8900000000,A01BBE,5,1548831328000
1548831355750.0000000000,12,1.5500000000,A01BBE,5,1548831328000
1548831355765.6201171875,12,-2.1900000000,A01BBE,5,1548831328000
1548831355781.2500000000,12,-6.1600000000,A01BBE,5,1548831328000
1548831355796.8798828125,12,-10.3100000000,A01BBE,5,1548831328000
1548831355812.5000000000,12,-14.7800000000,A01BBE,5,1548831328000
1548831355828.1201171875,12,-19.7900000000,A01BBE,5,1548831328000
1548831355843.7500000000,12,-25.5500000000,A01BBE,5,1548831328000
1548831355859.3798828125,12,-31.9500000000,A01BBE,5,1548831328000
1548831355875.0000000000,12,-38.3700000000,A01BBE,5,1548831328000
1548831355890.6201171875,12,-43.6900000000,A01BBE,5,1548831328000
1548831355906.2500000000,12,-46.5200000000,A01BBE,5,1548831328000
1548831355921.8798828125,12,-45.5900000000,A01BBE,5,1548831328000
1548831355937.5000000000,12,-40.2600000000,A01BBE,5,1548831328000
1548831355953.1201171875,12,-30.8600000000,A01BBE,5,1548831328000
1548831355968.7500000000,12,-18.6600000000,A01BBE,5,1548831328000
1548831355984.3798828125,12,-5.5000000000,A01BBE,5,1548831328000
1548831356000.0000000000,12,6.7200000000,A01BBE,5,1548831328000
1548831356015.6201171875,12,16.6000000000,A01BBE,5,1548831328000
1548831356031.2500000000,12,23.5100000000,A01BBE,5,1548831328000
1548831356046.8798828125,12,27.5200000000,A01BBE,5,1548831328000
1548831356062.5000000000,12,29.0700000000,A01BBE,5,1548831328000
1548831356078.1201171875,12,28.6400000000,A01BBE,5,1548831328000
1548831356093.7500000000,12,26.5800000000,A01BBE,5,1548831328000
1548831356109.3798828125,12,23.0700000000,A01BBE,5,1548831328000
1548831356125.0000000000,12,18.3500000000,A01BBE,5,1548831328000
1548831356140.6201171875,12,12.8600000000,A01BBE,5,1548831328000
1548831356156.2500000000,12,7.2900000000,A01BBE,5,1548831328000
1548831356171.8798828125,12,2.4200000000,A01BBE,5,1548831328000
1548831356187.5000000000,12,-1.0400000000,A01BBE,5,1548831328000
1548831356203.1201171875,12,-2.6900000000,A01BBE,5,1548831328000
1548831356218.7500000000,12,-2.5600000000,A01BBE,5,1548831328000
1548831356234.3798828125,12,-1.0800000000,A01BBE,5,1548831328000
1548831356250.0000000000,12,1.1000000000,A01BBE,5,1548831328000
1548831356265.6201171875,12,3.3200000000,A01BBE,5,1548831328000
1548831356281.2500000000,12,5.1100000000,A01BBE,5,1548831328000
1548831356296.8798828125,12,6.3000000000,A01BBE,5,1548831328000
1548831356312.5000000000,12,7.0000000000,A01BBE,5,1548831328000
1548831356328.1201171875,12,7.4200000000,A01BBE,5,1548831328000
1548831356343.7500000000,12,7.7400000000,A01BBE,5,1548831328000
1548831356359.3798828125,12,7.9400000000,A01BBE,5,1548831328000
1548831356375.0000000000,12,7.8300000000,A01BBE,5,1548831328000
1548831356390.6201171875,12,7.0700000000,A01BBE,5,1548831328000
1548831356406.2500000000,12,5.4100000000,A01BBE,5,1548831328000
1548831356421.8798828125,12,2.6400000000,A01BBE,5,1548831328000
1548831356437.5000000000,12,-1.2500000000,A01BBE,5,1548831328000
1548831356453.1201171875,12,-6.1300000000,A01BBE,5,1548831328000
1548831356468.7500000000,12,-11.6700000000,A01BBE,5,1548831328000
1548831356484.3798828125,12,-17.2800000000,A01BBE,5,1548831328000
1548831356500.0000000000,12,-22.0800000000,A01BBE,5,1548831328000
1548831356515.6201171875,12,-25.0000000000,A01BBE,5,1548831328000
1548831356531.2500000000,12,-25.0400000000,A01BBE,5,1548831328000
1548831356546.8798828125,12,-21.5200000000,A01BBE,5,1548831328000
1548831356562.5000000000,12,-14.5000000000,A01BBE,5,1548831328000
1548831356578.1201171875,12,-4.8300000000,A01BBE,5,1548831328000
1548831356593.7500000000,12,6.0400000000,A01BBE,5,1548831328000
1548831356609.3798828125,12,16.4400000000,A01BBE,5,1548831328000
1548831356625.0000000000,12,25.0200000000,A01BBE,5,1548831328000
1548831356640.6201171875,12,31.0400000000,A01BBE,5,1548831328000
1548831356656.2500000000,12,34.5300000000,A01BBE,5,1548831328000
1548831356671.8798828125,12,35.9500000000,A01BBE,5,1548831328000
1548831356687.5000000000,12,35.8500000000,A01BBE,5,1548831328000
1548831356703.1201171875,12,34.5900000000,A01BBE,5,1548831328000
1548831356718.7500000000,12,32.2300000000,A01BBE,5,1548831328000
1548831356734.3798828125,12,28.7400000000,A01BBE,5,1548831328000
1548831356750.0000000000,12,24.2400000000,A01BBE,5,1548831328000
1548831356765.6201171875,12,19.1900000000,A01BBE,5,1548831328000
1548831356781.2500000000,12,14.3800000000,A01BBE,5,1548831328000
1548831356796.8798828125,12,10.6000000000,A01BBE,5,1548831328000
