timestamp,pid,value,device_serial,device_number,entry_time
1548205972000.0000000000,5,0E-10,A01A3A,5,1548205972000
1548205972015.6201171875,5,0E-10,A01A3A,5,1548205972000
1548205972031.2500000000,5,0E-10,A01A3A,5,1548205972000
1548205972046.8798828125,5,0E-10,A01A3A,5,1548205972000
1548205972062.5000000000,5,0E-10,A01A3A,5,1548205972000
1548205972078.1201171875,5,0E-10,A01A3A,5,1548205972000
1548205972093.7500000000,5,0E-10,A01A3A,5,1548205972000
1548205972109.3798828125,5,0E-10,A01A3A,5,1548205972000
1548205972125.0000000000,5,0E-10,A01A3A,5,1548205972000
1548205972140.6201171875,5,0E-10,A01A3A,5,1548205972000
1548205972156.2500000000,5,0E-10,A01A3A,5,1548205972000
1548205972171.8798828125,5,0.0100000000,A01A3A,5,1548205972000
1548205972187.5000000000,5,0.0100000000,A01A3A,5,1548205972000
1548205972203.1201171875,5,0E-10,A01A3A,5,1548205972000
1548205972218.7500000000,5,-0.0300000000,A01A3A,5,1548205972000
1548205972234.3798828125,5,-0.0500000000,A01A3A,5,1548205972000
1548205972250.0000000000,5,-0.0500000000,A01A3A,5,1548205972000
1548205972265.6201171875,5,0E-10,A01A3A,5,1548205972000
1548205972281.2500000000,5,0.1300000000,A01A3A,5,1548205972000
1548205972296.8798828125,5,0.3600000000,A01A3A,5,1548205972000
1548205972312.5000000000,5,0.6600000000,A01A3A,5,1548205972000
1548205972328.1201171875,5,1.0100000000,A01A3A,5,1548205972000
1548205972343.7500000000,5,1.3700000000,A01A3A,5,1548205972000
1548205972359.3798828125,5,1.7200000000,A01A3A,5,1548205972000
1548205972375.0000000000,5,2.0600000000,A01A3A,5,1548205972000
1548205972390.6201171875,5,2.4000000000,A01A3A,5,1548205972000
1548205972406.2500000000,5,2.7900000000,A01A3A,5,1548205972000
1548205972421.8798828125,5,3.2400000000,A01A3A,5,1548205972000
1548205972437.5000000000,5,3.8000000000,A01A3A,5,1548205972000
1548205972453.1201171875,5,4.4200000000,A01A3A,5,1548205972000
1548205972468.7500000000,5,5.0600000000,A01A3A,5,1548205972000
1548205972484.3798828125,5,5.6600000000,A01A3A,5,1548205972000
1548205972500.0000000000,5,6.2000000000,A01A3A,5,1548205972000
1548205972515.6201171875,5,6.6800000000,A01A3A,5,1548205972000
1548205972531.2500000000,5,7.1500000000,A01A3A,5,1548205972000
1548205972546.8798828125,5,7.6800000000,A01A3A,5,1548205972000
1548205972562.5000000000,5,8.3100000000,A01A3A,5,1548205972000
1548205972578.1201171875,5,9.1400000000,A01A3A,5,1548205972000
1548205972593.7500000000,5,10.0900000000,A01A3A,5,1548205972000
1548205972609.3798828125,5,11.0400000000,A01A3A,5,1548205972000
1548205972625.0000000000,5,11.8800000000,A01A3A,5,1548205972000
1548205972640.6201171875,5,12.5600000000,A01A3A,5,1548205972000
1548205972656.2500000000,5,13.1400000000,A01A3A,5,1548205972000
1548205972671.8798828125,5,13.7600000000,A01A3A,5,1548205972000
1548205972687.5000000000,5,14.6500000000,A01A3A,5,1548205972000
1548205972703.1201171875,5,15.9600000000,A01A3A,5,1548205972000
1548205972718.7500000000,5,17.9100000000,A01A3A,5,1548205972000
1548205972734.3798828125,5,20.3200000000,A01A3A,5,1548205972000
1548205972750.0000000000,5,22.9000000000,A01A3A,5,1548205972000
1548205972765.6201171875,5,25.3800000000,A01A3A,5,1548205972000
1548205972781.2500000000,5,27.5800000000,A01A3A,5,1548205972000
1548205972796.8798828125,5,29.5700000000,A01A3A,5,1548205972000
1548205972812.5000000000,5,31.6800000000,A01A3A,5,1548205972000
1548205972828.1201171875,5,34.3200000000,A01A3A,5,1548205972000
1548205972843.7500000000,5,37.8100000000,A01A3A,5,1548205972000
1548205972859.3798828125,5,42.5400000000,A01A3A,5,1548205972000
1548205972875.0000000000,5,48.1500000000,A01A3A,5,1548205972000
1548205972890.6201171875,5,54.1000000000,A01A3A,5,1548205972000
1548205972906.2500000000,5,59.8300000000,A01A3A,5,1548205972000
1548205972921.8798828125,5,64.9700000000,A01A3A,5,1548205972000
1548205972937.5000000000,5,69.5800000000,A01A3A,5,1548205972000
1548205972953.1201171875,5,74.1400000000,A01A3A,5,1548205972000
1548205972968.7500000000,5,79.3400000000,A01A3A,5,1548205972000
1548205972984.3798828125,5,85.7100000000,A01A3A,5,1548205972000
1548205973000.0000000000,5,93.7600000000,A01A3A,5,1548205972000
1548205973015.6201171875,5,103.0000000000,A01A3A,5,1548205972000
1548205973031.2500000000,5,112.6200000000,A01A3A,5,1548205972000
1548205973046.8798828125,5,121.7300000000,A01A3A,5,1548205972000
1548205973062.5000000000,5,129.7700000000,A01A3A,5,1548205972000
1548205973078.1201171875,5,136.7500000000,A01A3A,5,1548205972000
1548205973093.7500000000,5,143.3000000000,A01A3A,5,1548205972000
1548205973109.3798828125,5,150.7500000000,A01A3A,5,1548205972000
1548205973125.0000000000,5,157.7700000000,A01A3A,5,1548205972000
1548205973140.6201171875,5,166.6400000000,A01A3A,5,1548205972000
1548205973156.2500000000,5,177.9500000000,A01A3A,5,1548205972000
1548205973171.8798828125,5,191.7900000000,A01A3A,5,1548205972000
1548205973187.5000000000,5,206.9700000000,A01A3A,5,1548205972000
1548205973203.1201171875,5,220.5700000000,A01A3A,5,1548205972000
1548205973218.7500000000,5,228.2500000000,A01A3A,5,1548205972000
1548205973234.3798828125,5,225.3600000000,A01A3A,5,1548205972000
1548205973250.0000000000,5,208.5300000000,A01A3A,5,1548205972000
1548205973265.6201171875,5,176.8700000000,A01A3A,5,1548205972000
1548205973281.2500000000,5,132.7600000000,A01A3A,5,1548205972000
1548205973296.8798828125,5,80.0500000000,A01A3A,5,1548205972000
1548205973312.5000000000,5,23.0700000000,A01A3A,5,1548205972000
1548205973328.1201171875,5,-34.9400000000,A01A3A,5,1548205972000
1548205973343.7500000000,5,-92.4400000000,A01A3A,5,1548205972000
1548205973359.3798828125,5,-149.1600000000,A01A3A,5,1548205972000
1548205973375.0000000000,5,-205.2300000000,A01A3A,5,1548205972000
1548205973390.6201171875,5,-260.3700000000,A01A3A,5,1548205972000
1548205973406.2500000000,5,-313.7400000000,A01A3A,5,1548205972000
1548205973421.8798828125,5,-363.8700000000,A01A3A,5,1548205972000
1548205973437.5000000000,5,-409.8300000000,A01A3A,5,1548205972000
1548205973453.1201171875,5,-450.9100000000,A01A3A,5,1548205972000
1548205973468.7500000000,5,-486.5000000000,A01A3A,5,1548205972000
1548205973484.3798828125,5,-515.7400000000,A01A3A,5,1548205972000
1548205973500.0000000000,5,-537.2300000000,A01A3A,5,1548205972000
1548205973515.6201171875,5,-549.2200000000,A01A3A,5,1548205972000
1548205973531.2500000000,5,-549.9600000000,A01A3A,5,1548205972000
1548205973546.8798828125,5,-538.3700000000,A01A3A,5,1548205972000
1548205973562.5000000000,5,-514.2100000000,A01A3A,5,1548205972000
1548205973578.1201171875,5,-478.6700000000,A01A3A,5,1548205972000
1548205973593.7500000000,5,-433.8800000000,A01A3A,5,1548205972000
1548205973609.3798828125,5,-382.4500000000,A01A3A,5,1548205972000
1548205973625.0000000000,5,-327.0200000000,A01A3A,5,1548205972000
1548205973640.6201171875,5,-269.8400000000,A01A3A,5,1548205972000
1548205973656.2500000000,5,-212.6300000000,A01A3A,5,1548205972000
1548205973671.8798828125,5,-156.6600000000,A01A3A,5,1548205972000
1548205973687.5000000000,5,-102.9500000000,A01A3A,5,1548205972000
1548205973703.1201171875,5,-52.3700000000,A01A3A,5,1548205972000
1548205973718.7500000000,5,-5.9000000000,A01A3A,5,1548205972000
1548205973734.3798828125,5,35.5800000000,A01A3A,5,1548205972000
1548205973750.0000000000,5,71.4300000000,A01A3A,5,1548205972000
1548205973765.6201171875,5,101.3500000000,A01A3A,5,1548205972000
1548205973781.2500000000,5,125.5000000000,A01A3A,5,1548205972000
1548205973796.8798828125,5,144.3800000000,A01A3A,5,1548205972000
1548205973812.5000000000,5,158.6900000000,A01A3A,5,1548205972000
1548205973828.1201171875,5,169.1500000000,A01A3A,5,1548205972000
1548205973843.7500000000,5,176.3700000000,A01A3A,5,1548205972000
1548205973859.3798828125,5,180.7500000000,A01A3A,5,1548205972000
1548205973875.0000000000,5,182.5700000000,A01A3A,5,1548205972000
1548205973890.6201171875,5,182.0700000000,A01A3A,5,1548205972000
1548205973906.2500000000,5,179.5100000000,A01A3A,5,1548205972000
1548205973921.8798828125,5,175.2300000000,A01A3A,5,1548205972000
1548205973937.5000000000,5,169.6500000000,A01A3A,5,1548205972000
1548205973953.1201171875,5,163.1800000000,A01A3A,5,1548205972000
1548205973968.7500000000,5,156.1500000000,A01A3A,5,1548205972000
1548205973984.3798828125,5,148.8100000000,A01A3A,5,1548205972000
1548205974000.0000000000,5,141.3000000000,A01A3A,5,1548205972000
1548205974015.6201171875,5,133.6900000000,A01A3A,5,1548205972000
1548205974031.2500000000,5,126.0200000000,A01A3A,5,1548205972000
1548205974046.8798828125,5,118.3300000000,A01A3A,5,1548205972000
1548205974062.5000000000,5,110.6900000000,A01A3A,5,1548205972000
1548205974078.1201171875,5,103.1600000000,A01A3A,5,1548205972000
1548205974093.7500000000,5,95.8000000000,A01A3A,5,1548205972000
1548205974109.3798828125,5,88.6800000000,A01A3A,5,1548205972000
1548205974125.0000000000,5,81.8300000000,A01A3A,5,1548205972000
1548205974140.6201171875,5,75.2500000000,A01A3A,5,1548205972000
1548205974156.2500000000,5,68.9500000000,A01A3A,5,1548205972000
1548205974171.8798828125,5,62.9500000000,A01A3A,5,1548205972000
1548205974187.5000000000,5,57.2500000000,A01A3A,5,1548205972000
1548205974203.1201171875,5,51.8600000000,A01A3A,5,1548205972000
1548205974218.7500000000,5,46.7800000000,A01A3A,5,1548205972000
1548205974234.3798828125,5,42.0300000000,A01A3A,5,1548205972000
1548205974250.0000000000,5,37.5900000000,A01A3A,5,1548205972000
1548205974265.6201171875,5,33.4500000000,A01A3A,5,1548205972000
1548205974281.2500000000,5,29.6100000000,A01A3A,5,1548205972000
1548205974296.8798828125,5,26.0700000000,A01A3A,5,1548205972000
1548205974312.5000000000,5,22.8100000000,A01A3A,5,1548205972000
1548205974328.1201171875,5,19.8300000000,A01A3A,5,1548205972000
1548205974343.7500000000,5,17.1100000000,A01A3A,5,1548205972000
1548205974359.3798828125,5,14.6700000000,A01A3A,5,1548205972000
1548205974375.0000000000,5,12.4800000000,A01A3A,5,1548205972000
1548205974390.6201171875,5,10.5400000000,A01A3A,5,1548205972000
1548205974406.2500000000,5,8.8300000000,A01A3A,5,1548205972000
1548205974421.8798828125,5,7.3500000000,A01A3A,5,1548205972000
1548205974437.5000000000,5,6.0700000000,A01A3A,5,1548205972000
1548205974453.1201171875,5,4.9700000000,A01A3A,5,1548205972000
1548205974468.7500000000,5,4.0500000000,A01A3A,5,1548205972000
1548205974484.3798828125,5,3.2700000000,A01A3A,5,1548205972000
1548205974500.0000000000,5,2.6200000000,A01A3A,5,1548205972000
1548205974515.6201171875,5,2.0900000000,A01A3A,5,1548205972000
1548205974531.2500000000,5,1.6500000000,A01A3A,5,1548205972000
1548205974546.8798828125,5,1.3000000000,A01A3A,5,1548205972000
1548205974562.5000000000,5,1.0100000000,A01A3A,5,1548205972000
1548205974578.1201171875,5,0.7900000000,A01A3A,5,1548205972000
1548205974593.7500000000,5,0.6100000000,A01A3A,5,1548205972000
1548205974609.3798828125,5,0.4700000000,A01A3A,5,1548205972000
1548205974625.0000000000,5,0.3700000000,A01A3A,5,1548205972000
1548205974640.6201171875,5,0.2900000000,A01A3A,5,1548205972000
1548205974656.2500000000,5,0.2300000000,A01A3A,5,1548205972000
1548205974671.8798828125,5,0.1900000000,A01A3A,5,1548205972000
1548205974687.5000000000,5,0.1700000000,A01A3A,5,1548205972000
1548205974703.1201171875,5,0.1600000000,A01A3A,5,1548205972000
1548205974718.7500000000,5,0.1600000000,A01A3A,5,1548205972000
1548205974734.3798828125,5,0.1700000000,A01A3A,5,1548205972000
1548205974750.0000000000,5,0.1800000000,A01A3A,5,1548205972000
1548205974765.6201171875,5,0.2100000000,A01A3A,5,1548205972000
1548205974781.2500000000,5,0.2400000000,A01A3A,5,1548205972000
1548205974796.8798828125,5,0.2700000000,A01A3A,5,1548205972000
1548205974812.5000000000,5,0.3100000000,A01A3A,5,1548205972000
1548205974828.1201171875,5,0.3600000000,A01A3A,5,1548205972000
1548205974843.7500000000,5,0.4000000000,A01A3A,5,1548205972000
1548205974859.3798828125,5,0.4500000000,A01A3A,5,1548205972000
1548205974875.0000000000,5,0.5000000000,A01A3A,5,1548205972000
1548205974890.6201171875,5,0.5400000000,A01A3A,5,1548205972000
1548205974906.2500000000,5,0.5900000000,A01A3A,5,1548205972000
1548205974921.8798828125,5,0.6500000000,A01A3A,5,1548205972000
1548205974937.5000000000,5,0.7100000000,A01A3A,5,1548205972000
1548205974953.1201171875,5,0.7600000000,A01A3A,5,1548205972000
1548205974968.7500000000,5,0.8300000000,A01A3A,5,1548205972000
1548205974984.3798828125,5,0.9000000000,A01A3A,5,1548205972000
1548205975000.0000000000,5,0.9800000000,A01A3A,5,1548205972000
1548205975015.6201171875,5,1.0600000000,A01A3A,5,1548205972000
1548205975031.2500000000,5,1.1500000000,A01A3A,5,1548205972000
1548205975046.8798828125,5,1.2600000000,A01A3A,5,1548205972000
1548205975062.5000000000,5,1.3800000000,A01A3A,5,1548205972000
1548205975078.1201171875,5,1.5100000000,A01A3A,5,1548205972000
1548205975093.7500000000,5,1.6500000000,A01A3A,5,1548205972000
1548205975109.3798828125,5,1.8200000000,A01A3A,5,1548205972000
1548205975125.0000000000,5,2.0000000000,A01A3A,5,1548205972000
1548205975140.6201171875,5,2.2100000000,A01A3A,5,1548205972000
1548205975156.2500000000,5,2.4400000000,A01A3A,5,1548205972000
1548205975171.8798828125,5,2.6900000000,A01A3A,5,1548205972000
1548205975187.5000000000,5,2.9700000000,A01A3A,5,1548205972000
1548205975203.1201171875,5,3.2700000000,A01A3A,5,1548205972000
1548205975218.7500000000,5,3.6100000000,A01A3A,5,1548205972000
1548205975234.3798828125,5,3.9800000000,A01A3A,5,1548205972000
1548205975250.0000000000,5,4.3900000000,A01A3A,5,1548205972000
1548205975265.6201171875,5,4.8200000000,A01A3A,5,1548205972000
1548205975281.2500000000,5,5.3000000000,A01A3A,5,1548205972000
1548205975296.8798828125,5,5.8200000000,A01A3A,5,1548205972000
1548205975312.5000000000,5,6.3700000000,A01A3A,5,1548205972000
1548205975328.1201171875,5,6.9600000000,A01A3A,5,1548205972000
1548205975343.7500000000,5,7.6000000000,A01A3A,5,1548205972000
1548205975359.3798828125,5,8.2800000000,A01A3A,5,1548205972000
1548205975375.0000000000,5,9.0000000000,A01A3A,5,1548205972000
1548205975390.6201171875,5,9.7700000000,A01A3A,5,1548205972000
1548205975406.2500000000,5,10.5800000000,A01A3A,5,1548205972000
1548205975421.8798828125,5,11.4500000000,A01A3A,5,1548205972000
1548205975437.5000000000,5,12.3800000000,A01A3A,5,1548205972000
1548205975453.1201171875,5,13.3500000000,A01A3A,5,1548205972000
1548205975468.7500000000,5,14.3800000000,A01A3A,5,1548205972000
1548205975484.3798828125,5,15.4400000000,A01A3A,5,1548205972000
1548205975500.0000000000,5,16.5200000000,A01A3A,5,1548205972000
1548205975515.6201171875,5,17.6100000000,A01A3A,5,1548205972000
1548205975531.2500000000,5,18.7200000000,A01A3A,5,1548205972000
1548205975546.8798828125,5,19.8600000000,A01A3A,5,1548205972000
1548205975562.5000000000,5,21.0200000000,A01A3A,5,1548205972000
1548205975578.1201171875,5,22.1600000000,A01A3A,5,1548205972000
1548205975593.7500000000,5,23.2100000000,A01A3A,5,1548205972000
1548205975609.3798828125,5,24.0500000000,A01A3A,5,1548205972000
1548205975625.0000000000,5,24.5100000000,A01A3A,5,1548205972000
1548205975640.6201171875,5,24.4500000000,A01A3A,5,1548205972000
1548205975656.2500000000,5,23.7100000000,A01A3A,5,1548205972000
1548205975671.8798828125,5,22.2500000000,A01A3A,5,1548205972000
1548205975687.5000000000,5,20.0200000000,A01A3A,5,1548205972000
1548205975703.1201171875,5,17.0800000000,A01A3A,5,1548205972000
1548205975718.7500000000,5,13.5200000000,A01A3A,5,1548205972000
1548205975734.3798828125,5,9.3900000000,A01A3A,5,1548205972000
1548205975750.0000000000,5,4.8700000000,A01A3A,5,1548205972000
1548205975765.6201171875,5,0.0800000000,A01A3A,5,1548205972000
1548205975781.2500000000,5,-4.8200000000,A01A3A,5,1548205972000
1548205975796.8798828125,5,-9.6200000000,A01A3A,5,1548205972000
1548205975812.5000000000,5,-14.1100000000,A01A3A,5,1548205972000
1548205975828.1201171875,5,-18.0400000000,A01A3A,5,1548205972000
1548205975843.7500000000,5,-21.2000000000,A01A3A,5,1548205972000
1548205975859.3798828125,5,-23.4500000000,A01A3A,5,1548205972000
1548205975875.0000000000,5,-24.8200000000,A01A3A,5,1548205972000
1548205975890.6201171875,5,-25.4400000000,A01A3A,5,1548205972000
1548205975906.2500000000,5,-25.5500000000,A01A3A,5,1548205972000
1548205975921.8798828125,5,-25.4100000000,A01A3A,5,1548205972000
1548205975937.5000000000,5,-25.2100000000,A01A3A,5,1548205972000
1548205975953.1201171875,5,-25.0000000000,A01A3A,5,1548205972000
1548205975968.7500000000,5,-24.6800000000,A01A3A,5,1548205972000
1548205975984.3798828125,5,-24.0800000000,A01A3A,5,1548205972000
1548205976000.0000000000,5,-23.0900000000,A01A3A,5,1548205972000
1548205976015.6201171875,5,-21.7600000000,A01A3A,5,1548205972000
1548205976031.2500000000,5,-20.3100000000,A01A3A,5,1548205972000
1548205976046.8798828125,5,-19.1100000000,A01A3A,5,1548205972000
1548205976062.5000000000,5,-18.5100000000,A01A3A,5,1548205972000
1548205976078.1201171875,5,-18.6600000000,A01A3A,5,1548205972000
1548205976093.7500000000,5,-19.4200000000,A01A3A,5,1548205972000
1548205976109.3798828125,5,-20.4200000000,A01A3A,5,1548205972000
1548205976125.0000000000,5,-21.1500000000,A01A3A,5,1548205972000
1548205976140.6201171875,5,-21.2600000000,A01A3A,5,1548205972000
1548205976156.2500000000,5,-20.7100000000,A01A3A,5,1548205972000
1548205976171.8798828125,5,-19.8500000000,A01A3A,5,1548205972000
1548205976187.5000000000,5,-19.2400000000,A01A3A,5,1548205972000
1548205976203.1201171875,5,-19.4800000000,A01A3A,5,1548205972000
1548205976218.7500000000,5,-20.8200000000,A01A3A,5,1548205972000
1548205976234.3798828125,5,-23.0800000000,A01A3A,5,1548205972000
1548205976250.0000000000,5,-25.7000000000,A01A3A,5,1548205972000
1548205976265.6201171875,5,-28.0000000000,A01A3A,5,1548205972000
1548205976281.2500000000,5,-29.4500000000,A01A3A,5,1548205972000
1548205976296.8798828125,5,-29.9400000000,A01A3A,5,1548205972000
1548205976312.5000000000,5,-29.8000000000,A01A3A,5,1548205972000
1548205976328.1201171875,5,-29.6100000000,A01A3A,5,1548205972000
1548205976343.7500000000,5,-30.0400000000,A01A3A,5,1548205972000
1548205976359.3798828125,5,-31.7100000000,A01A3A,5,1548205972000
1548205976375.0000000000,5,-35.1700000000,A01A3A,5,1548205972000
1548205976390.6201171875,5,-40.5600000000,A01A3A,5,1548205972000
1548205976406.2500000000,5,-47.3800000000,A01A3A,5,1548205972000
1548205976421.8798828125,5,-54.0900000000,A01A3A,5,1548205972000
1548205976437.5000000000,5,-58.1800000000,A01A3A,5,1548205972000
1548205976453.1201171875,5,-56.9000000000,A01A3A,5,1548205972000
1548205976468.7500000000,5,-48.3100000000,A01A3A,5,1548205972000
1548205976484.3798828125,5,-32.4200000000,A01A3A,5,1548205972000
1548205976500.0000000000,5,-11.5000000000,A01A3A,5,1548205972000
1548205976515.6201171875,5,10.6000000000,A01A3A,5,1548205972000
1548205976531.2500000000,5,29.8100000000,A01A3A,5,1548205972000
1548205976546.8798828125,5,43.3600000000,A01A3A,5,1548205972000
1548205976562.5000000000,5,50.5300000000,A01A3A,5,1548205972000
1548205976578.1201171875,5,52.3600000000,A01A3A,5,1548205972000
1548205976593.7500000000,5,50.7900000000,A01A3A,5,1548205972000
1548205976609.3798828125,5,47.5400000000,A01A3A,5,1548205972000
1548205976625.0000000000,5,43.6400000000,A01A3A,5,1548205972000
1548205976640.6201171875,5,39.5100000000,A01A3A,5,1548205972000
1548205976656.2500000000,5,35.4000000000,A01A3A,5,1548205972000
1548205976671.8798828125,5,31.7600000000,A01A3A,5,1548205972000
1548205976687.5000000000,5,29.1600000000,A01A3A,5,1548205972000
1548205976703.1201171875,5,28.0200000000,A01A3A,5,1548205972000
1548205976718.7500000000,5,28.2300000000,A01A3A,5,1548205972000
1548205976734.3798828125,5,29.1700000000,A01A3A,5,1548205972000
1548205976750.0000000000,5,29.8800000000,A01A3A,5,1548205972000
1548205976765.6201171875,5,29.4900000000,A01A3A,5,1548205972000
1548205976781.2500000000,5,27.6400000000,A01A3A,5,1548205972000
1548205976796.8798828125,5,24.6000000000,A01A3A,5,1548205972000
1548205976812.5000000000,5,21.0300000000,A01A3A,5,1548205972000
1548205976828.1201171875,5,17.7200000000,A01A3A,5,1548205972000
1548205976843.7500000000,5,15.2200000000,A01A3A,5,1548205972000
1548205976859.3798828125,5,13.6500000000,A01A3A,5,1548205972000
1548205976875.0000000000,5,12.7500000000,A01A3A,5,1548205972000
1548205976890.6201171875,5,12.0800000000,A01A3A,5,1548205972000
1548205976906.2500000000,5,11.2200000000,A01A3A,5,1548205972000
1548205976921.8798828125,5,9.9500000000,A01A3A,5,1548205972000
1548205976937.5000000000,5,8.3000000000,A01A3A,5,1548205972000
1548205976953.1201171875,5,6.4300000000,A01A3A,5,1548205972000
1548205976968.7500000000,5,4.4900000000,A01A3A,5,1548205972000
1548205976984.3798828125,5,2.5800000000,A01A3A,5,1548205972000
1548205977000.0000000000,5,0.6300000000,A01A3A,5,1548205972000
1548205977015.6201171875,5,-1.4200000000,A01A3A,5,1548205972000
1548205977031.2500000000,5,-3.5900000000,A01A3A,5,1548205972000
1548205977046.8798828125,5,-5.7600000000,A01A3A,5,1548205972000
1548205977062.5000000000,5,-7.7400000000,A01A3A,5,1548205972000
1548205977078.1201171875,5,-9.3100000000,A01A3A,5,1548205972000
1548205977093.7500000000,5,-10.3900000000,A01A3A,5,1548205972000
1548205977109.3798828125,5,-11.0200000000,A01A3A,5,1548205972000
1548205977125.0000000000,5,-11.3900000000,A01A3A,5,1548205972000
1548205977140.6201171875,5,-11.7600000000,A01A3A,5,1548205972000
1548205977156.2500000000,5,-12.3300000000,A01A3A,5,1548205972000
1548205977171.8798828125,5,-13.2600000000,A01A3A,5,1548205972000
1548205977187.5000000000,5,-14.5600000000,A01A3A,5,1548205972000
1548205977203.1201171875,5,-16.0500000000,A01A3A,5,1548205972000
1548205977218.7500000000,5,-17.4300000000,A01A3A,5,1548205972000
1548205977234.3798828125,5,-18.2300000000,A01A3A,5,1548205972000
1548205977250.0000000000,5,-17.9600000000,A01A3A,5,1548205972000
1548205977265.6201171875,5,-16.2200000000,A01A3A,5,1548205972000
1548205977281.2500000000,5,-12.8900000000,A01A3A,5,1548205972000
1548205977296.8798828125,5,-8.2200000000,A01A3A,5,1548205972000
1548205977312.5000000000,5,-2.7700000000,A01A3A,5,1548205972000
1548205977328.1201171875,5,2.7000000000,A01A3A,5,1548205972000
1548205977343.7500000000,5,7.4400000000,A01A3A,5,1548205972000
1548205977359.3798828125,5,10.9200000000,A01A3A,5,1548205972000
1548205977375.0000000000,5,12.8600000000,A01A3A,5,1548205972000
1548205977390.6201171875,5,13.2900000000,A01A3A,5,1548205972000
1548205977406.2500000000,5,12.4700000000,A01A3A,5,1548205972000
1548205977421.8798828125,5,10.8000000000,A01A3A,5,1548205972000
1548205977437.5000000000,5,8.8100000000,A01A3A,5,1548205972000
1548205977453.1201171875,5,6.9900000000,A01A3A,5,1548205972000
1548205977468.7500000000,5,5.7500000000,A01A3A,5,1548205972000
1548205977484.3798828125,5,5.3200000000,A01A3A,5,1548205972000
1548205977500.0000000000,5,5.6700000000,A01A3A,5,1548205972000
1548205977515.6201171875,5,6.6400000000,A01A3A,5,1548205972000
1548205977531.2500000000,5,7.9200000000,A01A3A,5,1548205972000
1548205977546.8798828125,5,9.1900000000,A01A3A,5,1548205972000
1548205977562.5000000000,5,10.1700000000,A01A3A,5,1548205972000
1548205977578.1201171875,5,10.6700000000,A01A3A,5,1548205972000
1548205977593.7500000000,5,10.5200000000,A01A3A,5,1548205972000
1548205977609.3798828125,5,9.6800000000,A01A3A,5,1548205972000
1548205977625.0000000000,5,8.2000000000,A01A3A,5,1548205972000
1548205977640.6201171875,5,6.2500000000,A01A3A,5,1548205972000
1548205977656.2500000000,5,4.1100000000,A01A3A,5,1548205972000
1548205977671.8798828125,5,2.1000000000,A01A3A,5,1548205972000
1548205977687.5000000000,5,0.4700000000,A01A3A,5,1548205972000
1548205977703.1201171875,5,-0.6400000000,A01A3A,5,1548205972000
1548205977718.7500000000,5,-1.2700000000,A01A3A,5,1548205972000
1548205977734.3798828125,5,-1.5900000000,A01A3A,5,1548205972000
1548205977750.0000000000,5,-1.8000000000,A01A3A,5,1548205972000
1548205977765.6201171875,5,-2.0900000000,A01A3A,5,1548205972000
1548205977781.2500000000,5,-2.5900000000,A01A3A,5,1548205972000
1548205977796.8798828125,5,-3.4200000000,A01A3A,5,1548205972000
1548205977812.5000000000,5,-4.6500000000,A01A3A,5,1548205972000
1548205977828.1201171875,5,-6.3300000000,A01A3A,5,1548205972000
1548205977843.7500000000,5,-8.4400000000,A01A3A,5,1548205972000
1548205977859.3798828125,5,-10.8800000000,A01A3A,5,1548205972000
1548205977875.0000000000,5,-13.5000000000,A01A3A,5,1548205972000
1548205977890.6201171875,5,-16.0100000000,A01A3A,5,1548205972000
1548205977906.2500000000,5,-18.0500000000,A01A3A,5,1548205972000
1548205977921.8798828125,5,-19.2200000000,A01A3A,5,1548205972000
1548205977937.5000000000,5,-19.1500000000,A01A3A,5,1548205972000
1548205977953.1201171875,5,-17.6100000000,A01A3A,5,1548205972000
1548205977968.7500000000,5,-14.6000000000,A01A3A,5,1548205972000
1548205977984.3798828125,5,-10.5000000000,A01A3A,5,1548205972000
1548205978000.0000000000,5,-5.9300000000,A01A3A,5,1548205972000
1548205978015.6201171875,5,-1.6500000000,A01A3A,5,1548205972000
1548205978031.2500000000,5,1.7500000000,A01A3A,5,1548205972000
1548205978046.8798828125,5,4.0400000000,A01A3A,5,1548205972000
1548205978062.5000000000,5,5.3800000000,A01A3A,5,1548205972000
1548205978078.1201171875,5,6.1900000000,A01A3A,5,1548205972000
1548205978093.7500000000,5,6.9400000000,A01A3A,5,1548205972000
1548205978109.3798828125,5,7.8700000000,A01A3A,5,1548205972000
1548205978125.0000000000,5,9.0300000000,A01A3A,5,1548205972000
1548205978140.6201171875,5,10.2300000000,A01A3A,5,1548205972000
1548205978156.2500000000,5,11.2700000000,A01A3A,5,1548205972000
1548205978171.8798828125,5,11.9600000000,A01A3A,5,1548205972000
1548205978187.5000000000,5,12.2600000000,A01A3A,5,1548205972000
1548205978203.1201171875,5,12.1400000000,A01A3A,5,1548205972000
1548205978218.7500000000,5,11.5800000000,A01A3A,5,1548205972000
1548205978234.3798828125,5,10.5500000000,A01A3A,5,1548205972000
1548205978250.0000000000,5,8.9900000000,A01A3A,5,1548205972000
1548205978265.6201171875,5,7.0200000000,A01A3A,5,1548205972000
1548205978281.2500000000,5,4.8700000000,A01A3A,5,1548205972000
1548205978296.8798828125,5,2.9300000000,A01A3A,5,1548205972000
1548205978312.5000000000,5,1.5900000000,A01A3A,5,1548205972000
1548205978328.1201171875,5,1.1300000000,A01A3A,5,1548205972000
1548205978343.7500000000,5,1.5100000000,A01A3A,5,1548205972000
1548205978359.3798828125,5,2.3900000000,A01A3A,5,1548205972000
1548205978375.0000000000,5,3.2500000000,A01A3A,5,1548205972000
1548205978390.6201171875,5,3.5200000000,A01A3A,5,1548205972000
1548205978406.2500000000,5,2.8700000000,A01A3A,5,1548205972000
1548205978421.8798828125,5,1.2700000000,A01A3A,5,1548205972000
1548205978437.5000000000,5,-0.9900000000,A01A3A,5,1548205972000
1548205978453.1201171875,5,-3.4900000000,A01A3A,5,1548205972000
1548205978468.7500000000,5,-5.8200000000,A01A3A,5,1548205972000
1548205978484.3798828125,5,-7.7300000000,A01A3A,5,1548205972000
1548205978500.0000000000,5,-9.1300000000,A01A3A,5,1548205972000
1548205978515.6201171875,5,-10.0700000000,A01A3A,5,1548205972000
1548205978531.2500000000,5,-10.6600000000,A01A3A,5,1548205972000
1548205978546.8798828125,5,-11.1000000000,A01A3A,5,1548205972000
1548205978562.5000000000,5,-11.6800000000,A01A3A,5,1548205972000
1548205978578.1201171875,5,-12.6600000000,A01A3A,5,1548205972000
1548205978593.7500000000,5,-14.2600000000,A01A3A,5,1548205972000
1548205978609.3798828125,5,-16.4100000000,A01A3A,5,1548205972000
1548205978625.0000000000,5,-18.7600000000,A01A3A,5,1548205972000
1548205978640.6201171875,5,-20.6300000000,A01A3A,5,1548205972000
1548205978656.2500000000,5,-21.2700000000,A01A3A,5,1548205972000
1548205978671.8798828125,5,-20.1300000000,A01A3A,5,1548205972000
1548205978687.5000000000,5,-17.1000000000,A01A3A,5,1548205972000
1548205978703.1201171875,5,-12.6000000000,A01A3A,5,1548205972000
1548205978718.7500000000,5,-7.3900000000,A01A3A,5,1548205972000
1548205978734.3798828125,5,-2.2900000000,A01A3A,5,1548205972000
1548205978750.0000000000,5,2.0700000000,A01A3A,5,1548205972000
1548205978765.6201171875,5,5.3800000000,A01A3A,5,1548205972000
1548205978781.2500000000,5,7.6900000000,A01A3A,5,1548205972000
1548205978796.8798828125,5,9.1600000000,A01A3A,5,1548205972000
1548205978812.5000000000,5,9.9100000000,A01A3A,5,1548205972000
1548205978828.1201171875,5,10.0300000000,A01A3A,5,1548205972000
1548205978843.7500000000,5,9.5100000000,A01A3A,5,1548205972000
1548205978859.3798828125,5,8.4300000000,A01A3A,5,1548205972000
1548205978875.0000000000,5,7.0200000000,A01A3A,5,1548205972000
1548205978890.6201171875,5,5.6300000000,A01A3A,5,1548205972000
1548205978906.2500000000,5,4.6600000000,A01A3A,5,1548205972000
1548205978921.8798828125,5,4.3700000000,A01A3A,5,1548205972000
1548205978937.5000000000,5,4.8300000000,A01A3A,5,1548205972000
1548205978953.1201171875,5,5.8400000000,A01A3A,5,1548205972000
1548205978968.7500000000,5,7.0400000000,A01A3A,5,1548205972000
1548205978984.3798828125,5,8.0500000000,A01A3A,5,1548205972000
1548205979000.0000000000,5,8.5400000000,A01A3A,5,1548205972000
1548205979015.6201171875,5,8.3200000000,A01A3A,5,1548205972000
1548205979031.2500000000,5,7.3800000000,A01A3A,5,1548205972000
1548205979046.8798828125,5,5.8100000000,A01A3A,5,1548205972000
1548205979062.5000000000,5,3.8000000000,A01A3A,5,1548205972000
1548205979078.1201171875,5,1.6200000000,A01A3A,5,1548205972000
1548205979093.7500000000,5,-0.4600000000,A01A3A,5,1548205972000
1548205979109.3798828125,5,-2.2000000000,A01A3A,5,1548205972000
1548205979125.0000000000,5,-3.4300000000,A01A3A,5,1548205972000
1548205979140.6201171875,5,-4.1000000000,A01A3A,5,1548205972000
1548205979156.2500000000,5,-4.3200000000,A01A3A,5,1548205972000
1548205979171.8798828125,5,-4.3100000000,A01A3A,5,1548205972000
1548205979187.5000000000,5,-4.4300000000,A01A3A,5,1548205972000
1548205979203.1201171875,5,-5.0900000000,A01A3A,5,1548205972000
1548205979218.7500000000,5,-6.6800000000,A01A3A,5,1548205972000
1548205979234.3798828125,5,-9.4100000000,A01A3A,5,1548205972000
1548205979250.0000000000,5,-13.1700000000,A01A3A,5,1548205972000
1548205979265.6201171875,5,-17.3900000000,A01A3A,5,1548205972000
1548205979281.2500000000,5,-21.1300000000,A01A3A,5,1548205972000
1548205979296.8798828125,5,-23.3000000000,A01A3A,5,1548205972000
1548205979312.5000000000,5,-23.0600000000,A01A3A,5,1548205972000
1548205979328.1201171875,5,-20.1000000000,A01A3A,5,1548205972000
1548205979343.7500000000,5,-14.8300000000,A01A3A,5,1548205972000
1548205979359.3798828125,5,-8.2200000000,A01A3A,5,1548205972000
1548205979375.0000000000,5,-1.4900000000,A01A3A,5,1548205972000
1548205979390.6201171875,5,4.2900000000,A01A3A,5,1548205972000
1548205979406.2500000000,5,8.5100000000,A01A3A,5,1548205972000
1548205979421.8798828125,5,11.0100000000,A01A3A,5,1548205972000
1548205979437.5000000000,5,12.0200000000,A01A3A,5,1548205972000
1548205979453.1201171875,5,11.9500000000,A01A3A,5,1548205972000
1548205979468.7500000000,5,11.2100000000,A01A3A,5,1548205972000
1548205979484.3798828125,5,10.2000000000,A01A3A,5,1548205972000
1548205979500.0000000000,5,9.2600000000,A01A3A,5,1548205972000
1548205979515.6201171875,5,8.6900000000,A01A3A,5,1548205972000
1548205979531.2500000000,5,8.7000000000,A01A3A,5,1548205972000
1548205979546.8798828125,5,9.3400000000,A01A3A,5,1548205972000
1548205979562.5000000000,5,10.4600000000,A01A3A,5,1548205972000
1548205979578.1201171875,5,11.7800000000,A01A3A,5,1548205972000
1548205979593.7500000000,5,12.8600000000,A01A3A,5,1548205972000
1548205979609.3798828125,5,13.3300000000,A01A3A,5,1548205972000
1548205979625.0000000000,5,12.9200000000,A01A3A,5,1548205972000
1548205979640.6201171875,5,11.5900000000,A01A3A,5,1548205972000
1548205979656.2500000000,5,9.5600000000,A01A3A,5,1548205972000
1548205979671.8798828125,5,7.2300000000,A01A3A,5,1548205972000
1548205979687.5000000000,5,5.0600000000,A01A3A,5,1548205972000
1548205979703.1201171875,5,3.3600000000,A01A3A,5,1548205972000
1548205979718.7500000000,5,2.2400000000,A01A3A,5,1548205972000
1548205979734.3798828125,5,1.4900000000,A01A3A,5,1548205972000
1548205979750.0000000000,5,0.7900000000,A01A3A,5,1548205972000
1548205979765.6201171875,5,-0.1900000000,A01A3A,5,1548205972000
1548205979781.2500000000,5,-1.6000000000,A01A3A,5,1548205972000
1548205979796.8798828125,5,-3.3800000000,A01A3A,5,1548205972000
1548205979812.5000000000,5,-5.3700000000,A01A3A,5,1548205972000
1548205979828.1201171875,5,-7.4100000000,A01A3A,5,1548205972000
1548205979843.7500000000,5,-9.5400000000,A01A3A,5,1548205972000
1548205979859.3798828125,5,-11.9300000000,A01A3A,5,1548205972000
1548205979875.0000000000,5,-14.7800000000,A01A3A,5,1548205972000
1548205979890.6201171875,5,-18.1600000000,A01A3A,5,1548205972000
1548205979906.2500000000,5,-21.9000000000,A01A3A,5,1548205972000
1548205979921.8798828125,5,-25.6100000000,A01A3A,5,1548205972000
1548205979937.5000000000,5,-28.7500000000,A01A3A,5,1548205972000
1548205979953.1201171875,5,-30.7700000000,A01A3A,5,1548205972000
1548205979968.7500000000,5,-31.2900000000,A01A3A,5,1548205972000
1548205979984.3798828125,5,-30.1700000000,A01A3A,5,1548205972000
1548205980000.0000000000,5,-27.5800000000,A01A3A,5,1548205972000
1548205980015.6201171875,5,-23.9500000000,A01A3A,5,1548205972000
1548205980031.2500000000,5,-19.9300000000,A01A3A,5,1548205972000
1548205980046.8798828125,5,-16.1600000000,A01A3A,5,1548205972000
1548205980062.5000000000,5,-13.1600000000,A01A3A,5,1548205972000
1548205980078.1201171875,5,-11.1900000000,A01A3A,5,1548205972000
1548205980093.7500000000,5,-10.2400000000,A01A3A,5,1548205972000
1548205980109.3798828125,5,-10.0300000000,A01A3A,5,1548205972000
1548205980125.0000000000,5,-10.1900000000,A01A3A,5,1548205972000
1548205980140.6201171875,5,-10.3600000000,A01A3A,5,1548205972000
1548205980156.2500000000,5,-10.3800000000,A01A3A,5,1548205972000
1548205980171.8798828125,5,-10.2700000000,A01A3A,5,1548205972000
1548205980187.5000000000,5,-10.2700000000,A01A3A,5,1548205972000
1548205980203.1201171875,5,-10.6900000000,A01A3A,5,1548205972000
1548205980218.7500000000,5,-11.8100000000,A01A3A,5,1548205972000
1548205980234.3798828125,5,-13.8100000000,A01A3A,5,1548205972000
1548205980250.0000000000,5,-16.6900000000,A01A3A,5,1548205972000
1548205980265.6201171875,5,-20.2500000000,A01A3A,5,1548205972000
1548205980281.2500000000,5,-24.1600000000,A01A3A,5,1548205972000
1548205980296.8798828125,5,-27.9900000000,A01A3A,5,1548205972000
1548205980312.5000000000,5,-31.3600000000,A01A3A,5,1548205972000
1548205980328.1201171875,5,-33.9400000000,A01A3A,5,1548205972000
1548205980343.7500000000,5,-35.5500000000,A01A3A,5,1548205972000
1548205980359.3798828125,5,-36.1400000000,A01A3A,5,1548205972000
1548205980375.0000000000,5,-35.7800000000,A01A3A,5,1548205972000
1548205980390.6201171875,5,-34.6000000000,A01A3A,5,1548205972000
1548205980406.2500000000,5,-32.7300000000,A01A3A,5,1548205972000
1548205980421.8798828125,5,-30.2700000000,A01A3A,5,1548205972000
1548205980437.5000000000,5,-27.2600000000,A01A3A,5,1548205972000
1548205980453.1201171875,5,-23.6600000000,A01A3A,5,1548205972000
1548205980468.7500000000,5,-19.3300000000,A01A3A,5,1548205972000
1548205980484.3798828125,5,-14.0400000000,A01A3A,5,1548205972000
1548205980500.0000000000,5,-7.5600000000,A01A3A,5,1548205972000
1548205980515.6201171875,5,0.2000000000,A01A3A,5,1548205972000
1548205980531.2500000000,5,9.0400000000,A01A3A,5,1548205972000
1548205980546.8798828125,5,18.4000000000,A01A3A,5,1548205972000
1548205980562.5000000000,5,27.3900000000,A01A3A,5,1548205972000
1548205980578.1201171875,5,35.0300000000,A01A3A,5,1548205972000
1548205980593.7500000000,5,40.4500000000,A01A3A,5,1548205972000
1548205980609.3798828125,5,43.1400000000,A01A3A,5,1548205972000
1548205980625.0000000000,5,43.1000000000,A01A3A,5,1548205972000
1548205980640.6201171875,5,40.8300000000,A01A3A,5,1548205972000
1548205980656.2500000000,5,37.2700000000,A01A3A,5,1548205972000
1548205980671.8798828125,5,33.5300000000,A01A3A,5,1548205972000
1548205980687.5000000000,5,30.6800000000,A01A3A,5,1548205972000
1548205980703.1201171875,5,29.4000000000,A01A3A,5,1548205972000
1548205980718.7500000000,5,29.8600000000,A01A3A,5,1548205972000
1548205980734.3798828125,5,31.7300000000,A01A3A,5,1548205972000
1548205980750.0000000000,5,34.3700000000,A01A3A,5,1548205972000
1548205980765.6201171875,5,37.1200000000,A01A3A,5,1548205972000
1548205980781.2500000000,5,39.5600000000,A01A3A,5,1548205972000
1548205980796.8798828125,5,41.4800000000,A01A3A,5,1548205972000
1548205980812.5000000000,5,42.7400000000,A01A3A,5,1548205972000
1548205980828.1201171875,5,43.2000000000,A01A3A,5,1548205972000
1548205980843.7500000000,5,42.6200000000,A01A3A,5,1548205972000
1548205980859.3798828125,5,40.8000000000,A01A3A,5,1548205972000
1548205980875.0000000000,5,37.8200000000,A01A3A,5,1548205972000
1548205980890.6201171875,5,34.0800000000,A01A3A,5,1548205972000
1548205980906.2500000000,5,30.2300000000,A01A3A,5,1548205972000
1548205980921.8798828125,5,26.9500000000,A01A3A,5,1548205972000
1548205980937.5000000000,5,24.6700000000,A01A3A,5,1548205972000
1548205980953.1201171875,5,23.4100000000,A01A3A,5,1548205972000
1548205980968.7500000000,5,22.8900000000,A01A3A,5,1548205972000
1548205980984.3798828125,5,22.6300000000,A01A3A,5,1548205972000
1548205981000.0000000000,5,22.2100000000,A01A3A,5,1548205972000
1548205981015.6201171875,5,21.3500000000,A01A3A,5,1548205972000
1548205981031.2500000000,5,19.9800000000,A01A3A,5,1548205972000
1548205981046.8798828125,5,18.1800000000,A01A3A,5,1548205972000
1548205981062.5000000000,5,16.1200000000,A01A3A,5,1548205972000
1548205981078.1201171875,5,13.9500000000,A01A3A,5,1548205972000
1548205981093.7500000000,5,11.7900000000,A01A3A,5,1548205972000
1548205981109.3798828125,5,9.7100000000,A01A3A,5,1548205972000
1548205981125.0000000000,5,7.7800000000,A01A3A,5,1548205972000
1548205981140.6201171875,5,6.0700000000,A01A3A,5,1548205972000
1548205981156.2500000000,5,4.6400000000,A01A3A,5,1548205972000
1548205981171.8798828125,5,3.5000000000,A01A3A,5,1548205972000
1548205981187.5000000000,5,2.5900000000,A01A3A,5,1548205972000
1548205981203.1201171875,5,1.6800000000,A01A3A,5,1548205972000
1548205981218.7500000000,5,0.5300000000,A01A3A,5,1548205972000
1548205981234.3798828125,5,-1.1200000000,A01A3A,5,1548205972000
1548205981250.0000000000,5,-3.3300000000,A01A3A,5,1548205972000
1548205981265.6201171875,5,-6.0500000000,A01A3A,5,1548205972000
1548205981281.2500000000,5,-9.0700000000,A01A3A,5,1548205972000
1548205981296.8798828125,5,-12.2100000000,A01A3A,5,1548205972000
1548205981312.5000000000,5,-15.3500000000,A01A3A,5,1548205972000
1548205981328.1201171875,5,-18.4400000000,A01A3A,5,1548205972000
1548205981343.7500000000,5,-21.3600000000,A01A3A,5,1548205972000
1548205981359.3798828125,5,-23.8200000000,A01A3A,5,1548205972000
1548205981375.0000000000,5,-25.3800000000,A01A3A,5,1548205972000
1548205981390.6201171875,5,-25.5000000000,A01A3A,5,1548205972000
1548205981406.2500000000,5,-23.8600000000,A01A3A,5,1548205972000
1548205981421.8798828125,5,-20.4700000000,A01A3A,5,1548205972000
1548205981437.5000000000,5,-15.7800000000,A01A3A,5,1548205972000
1548205981453.1201171875,5,-10.5400000000,A01A3A,5,1548205972000
1548205981468.7500000000,5,-5.5400000000,A01A3A,5,1548205972000
1548205981484.3798828125,5,-1.3100000000,A01A3A,5,1548205972000
1548205981500.0000000000,5,2.0000000000,A01A3A,5,1548205972000
1548205981515.6201171875,5,4.5700000000,A01A3A,5,1548205972000
1548205981531.2500000000,5,6.7400000000,A01A3A,5,1548205972000
1548205981546.8798828125,5,8.7800000000,A01A3A,5,1548205972000
1548205981562.5000000000,5,10.7000000000,A01A3A,5,1548205972000
1548205981578.1201171875,5,12.3600000000,A01A3A,5,1548205972000
1548205981593.7500000000,5,13.5200000000,A01A3A,5,1548205972000
1548205981609.3798828125,5,14.0400000000,A01A3A,5,1548205972000
1548205981625.0000000000,5,13.9900000000,A01A3A,5,1548205972000
1548205981640.6201171875,5,13.5500000000,A01A3A,5,1548205972000
1548205981656.2500000000,5,12.9300000000,A01A3A,5,1548205972000
1548205981671.8798828125,5,12.2300000000,A01A3A,5,1548205972000
1548205981687.5000000000,5,11.3800000000,A01A3A,5,1548205972000
1548205981703.1201171875,5,10.3000000000,A01A3A,5,1548205972000
1548205981718.7500000000,5,8.9600000000,A01A3A,5,1548205972000
1548205981734.3798828125,5,7.5700000000,A01A3A,5,1548205972000
1548205981750.0000000000,5,6.4800000000,A01A3A,5,1548205972000
1548205981765.6201171875,5,6.0300000000,A01A3A,5,1548205972000
1548205981781.2500000000,5,6.3500000000,A01A3A,5,1548205972000
1548205981796.8798828125,5,7.2500000000,A01A3A,5,1548205972000
1548205981812.5000000000,5,8.1900000000,A01A3A,5,1548205972000
1548205981828.1201171875,5,8.5600000000,A01A3A,5,1548205972000
1548205981843.7500000000,5,7.8900000000,A01A3A,5,1548205972000
1548205981859.3798828125,5,6.0700000000,A01A3A,5,1548205972000
1548205981875.0000000000,5,3.3500000000,A01A3A,5,1548205972000
1548205981890.6201171875,5,0.2700000000,A01A3A,5,1548205972000
1548205981906.2500000000,5,-2.6100000000,A01A3A,5,1548205972000
1548205981921.8798828125,5,-4.9000000000,A01A3A,5,1548205972000
1548205981937.5000000000,5,-6.4500000000,A01A3A,5,1548205972000
1548205981953.1201171875,5,-7.4200000000,A01A3A,5,1548205972000
1548205981968.7500000000,5,-8.1100000000,A01A3A,5,1548205972000
1548205981984.3798828125,5,-8.9900000000,A01A3A,5,1548205972000
1548205982000.0000000000,5,-10.4100000000,A01A3A,5,1548205972000
1548205982015.6201171875,5,-12.5900000000,A01A3A,5,1548205972000
1548205982031.2500000000,5,-15.4600000000,A01A3A,5,1548205972000
1548205982046.8798828125,5,-18.6100000000,A01A3A,5,1548205972000
1548205982062.5000000000,5,-21.4400000000,A01A3A,5,1548205972000
1548205982078.1201171875,5,-23.2400000000,A01A3A,5,1548205972000
1548205982093.7500000000,5,-23.4400000000,A01A3A,5,1548205972000
1548205982109.3798828125,5,-21.7500000000,A01A3A,5,1548205972000
1548205982125.0000000000,5,-18.2600000000,A01A3A,5,1548205972000
1548205982140.6201171875,5,-13.3600000000,A01A3A,5,1548205972000
1548205982156.2500000000,5,-7.6300000000,A01A3A,5,1548205972000
1548205982171.8798828125,5,-1.7300000000,A01A3A,5,1548205972000
1548205982187.5000000000,5,3.7500000000,A01A3A,5,1548205972000
1548205982203.1201171875,5,8.3300000000,A01A3A,5,1548205972000
1548205982218.7500000000,5,11.7200000000,A01A3A,5,1548205972000
1548205982234.3798828125,5,13.7600000000,A01A3A,5,1548205972000
1548205982250.0000000000,5,14.5000000000,A01A3A,5,1548205972000
1548205982265.6201171875,5,14.1500000000,A01A3A,5,1548205972000
1548205982281.2500000000,5,13.0200000000,A01A3A,5,1548205972000
1548205982296.8798828125,5,11.4900000000,A01A3A,5,1548205972000
1548205982312.5000000000,5,9.9200000000,A01A3A,5,1548205972000
1548205982328.1201171875,5,8.6400000000,A01A3A,5,1548205972000
1548205982343.7500000000,5,7.8900000000,A01A3A,5,1548205972000
1548205982359.3798828125,5,7.7700000000,A01A3A,5,1548205972000
1548205982375.0000000000,5,8.1900000000,A01A3A,5,1548205972000
1548205982390.6201171875,5,8.9100000000,A01A3A,5,1548205972000
1548205982406.2500000000,5,9.5000000000,A01A3A,5,1548205972000
1548205982421.8798828125,5,9.5100000000,A01A3A,5,1548205972000
1548205982437.5000000000,5,8.6100000000,A01A3A,5,1548205972000
1548205982453.1201171875,5,6.6800000000,A01A3A,5,1548205972000
1548205982468.7500000000,5,3.9100000000,A01A3A,5,1548205972000
1548205982484.3798828125,5,0.6800000000,A01A3A,5,1548205972000
1548205982500.0000000000,5,-2.5500000000,A01A3A,5,1548205972000
1548205982515.6201171875,5,-5.3900000000,A01A3A,5,1548205972000
1548205982531.2500000000,5,-7.7000000000,A01A3A,5,1548205972000
1548205982546.8798828125,5,-9.5300000000,A01A3A,5,1548205972000
1548205982562.5000000000,5,-11.1300000000,A01A3A,5,1548205972000
1548205982578.1201171875,5,-12.7700000000,A01A3A,5,1548205972000
1548205982593.7500000000,5,-14.6600000000,A01A3A,5,1548205972000
1548205982609.3798828125,5,-16.8800000000,A01A3A,5,1548205972000
1548205982625.0000000000,5,-19.4800000000,A01A3A,5,1548205972000
1548205982640.6201171875,5,-22.4600000000,A01A3A,5,1548205972000
1548205982656.2500000000,5,-25.9200000000,A01A3A,5,1548205972000
1548205982671.8798828125,5,-30.0500000000,A01A3A,5,1548205972000
1548205982687.5000000000,5,-35.0600000000,A01A3A,5,1548205972000
1548205982703.1201171875,5,-41.0900000000,A01A3A,5,1548205972000
1548205982718.7500000000,5,-48.0500000000,A01A3A,5,1548205972000
1548205982734.3798828125,5,-55.5300000000,A01A3A,5,1548205972000
1548205982750.0000000000,5,-62.8400000000,A01A3A,5,1548205972000
1548205982765.6201171875,5,-69.1200000000,A01A3A,5,1548205972000
1548205982781.2500000000,5,-73.5700000000,A01A3A,5,1548205972000
1548205982796.8798828125,5,-75.8400000000,A01A3A,5,1548205972000
1548205982812.5000000000,5,-76.1400000000,A01A3A,5,1548205972000
1548205982828.1201171875,5,-75.2700000000,A01A3A,5,1548205972000
1548205982843.7500000000,5,-74.3200000000,A01A3A,5,1548205972000
1548205982859.3798828125,5,-74.2800000000,A01A3A,5,1548205972000
1548205982875.0000000000,5,-75.6100000000,A01A3A,5,1548205972000
1548205982890.6201171875,5,-78.0400000000,A01A3A,5,1548205972000
1548205982906.2500000000,5,-80.7700000000,A01A3A,5,1548205972000
1548205982921.8798828125,5,-82.9600000000,A01A3A,5,1548205972000
1548205982937.5000000000,5,-84.1900000000,A01A3A,5,1548205972000
1548205982953.1201171875,5,-84.7400000000,A01A3A,5,1548205972000
1548205982968.7500000000,5,-85.3700000000,A01A3A,5,1548205972000
1548205982984.3798828125,5,-86.8600000000,A01A3A,5,1548205972000
1548205983000.0000000000,5,-89.4700000000,A01A3A,5,1548205972000
1548205983015.6201171875,5,-92.6900000000,A01A3A,5,1548205972000
1548205983031.2500000000,5,-95.4500000000,A01A3A,5,1548205972000
1548205983046.8798828125,5,-96.6600000000,A01A3A,5,1548205972000
1548205983062.5000000000,5,-95.7900000000,A01A3A,5,1548205972000
1548205983078.1201171875,5,-93.1400000000,A01A3A,5,1548205972000
1548205983093.7500000000,5,-89.7700000000,A01A3A,5,1548205972000
1548205983109.3798828125,5,-86.9600000000,A01A3A,5,1548205972000
1548205983125.0000000000,5,-85.6300000000,A01A3A,5,1548205972000
1548205983140.6201171875,5,-85.9300000000,A01A3A,5,1548205972000
1548205983156.2500000000,5,-87.1300000000,A01A3A,5,1548205972000
1548205983171.8798828125,5,-87.8600000000,A01A3A,5,1548205972000
1548205983187.5000000000,5,-86.2700000000,A01A3A,5,1548205972000
1548205983203.1201171875,5,-80.2000000000,A01A3A,5,1548205972000
1548205983218.7500000000,5,-67.4300000000,A01A3A,5,1548205972000
1548205983234.3798828125,5,-46.1700000000,A01A3A,5,1548205972000
1548205983250.0000000000,5,-15.7400000000,A01A3A,5,1548205972000
1548205983265.6201171875,5,22.5500000000,A01A3A,5,1548205972000
1548205983281.2500000000,5,65.0800000000,A01A3A,5,1548205972000
1548205983296.8798828125,5,106.5300000000,A01A3A,5,1548205972000
1548205983312.5000000000,5,141.5200000000,A01A3A,5,1548205972000
1548205983328.1201171875,5,166.4600000000,A01A3A,5,1548205972000
1548205983343.7500000000,5,180.7100000000,A01A3A,5,1548205972000
1548205983359.3798828125,5,186.4100000000,A01A3A,5,1548205972000
1548205983375.0000000000,5,186.9100000000,A01A3A,5,1548205972000
1548205983390.6201171875,5,184.8500000000,A01A3A,5,1548205972000
1548205983406.2500000000,5,181.0400000000,A01A3A,5,1548205972000
1548205983421.8798828125,5,174.6600000000,A01A3A,5,1548205972000
1548205983437.5000000000,5,164.6100000000,A01A3A,5,1548205972000
1548205983453.1201171875,5,151.0300000000,A01A3A,5,1548205972000
1548205983468.7500000000,5,135.8100000000,A01A3A,5,1548205972000
1548205983484.3798828125,5,121.9500000000,A01A3A,5,1548205972000
1548205983500.0000000000,5,112.1600000000,A01A3A,5,1548205972000
1548205983515.6201171875,5,107.6600000000,A01A3A,5,1548205972000
1548205983531.2500000000,5,107.8500000000,A01A3A,5,1548205972000
1548205983546.8798828125,5,111.0400000000,A01A3A,5,1548205972000
1548205983562.5000000000,5,115.4700000000,A01A3A,5,1548205972000
1548205983578.1201171875,5,120.0000000000,A01A3A,5,1548205972000
1548205983593.7500000000,5,124.2300000000,A01A3A,5,1548205972000
1548205983609.3798828125,5,127.9900000000,A01A3A,5,1548205972000
1548205983625.0000000000,5,130.7800000000,A01A3A,5,1548205972000
1548205983640.6201171875,5,131.8300000000,A01A3A,5,1548205972000
1548205983656.2500000000,5,130.8000000000,A01A3A,5,1548205972000
1548205983671.8798828125,5,128.5300000000,A01A3A,5,1548205972000
1548205983687.5000000000,5,127.4200000000,A01A3A,5,1548205972000
1548205983703.1201171875,5,130.7400000000,A01A3A,5,1548205972000
1548205983718.7500000000,5,141.1400000000,A01A3A,5,1548205972000
1548205983734.3798828125,5,159.0900000000,A01A3A,5,1548205972000
1548205983750.0000000000,5,182.2400000000,A01A3A,5,1548205972000
1548205983765.6201171875,5,206.1700000000,A01A3A,5,1548205972000
1548205983781.2500000000,5,225.9400000000,A01A3A,5,1548205972000
1548205983796.8798828125,5,237.7500000000,A01A3A,5,1548205972000
1548205983812.5000000000,5,239.7200000000,A01A3A,5,1548205972000
1548205983828.1201171875,5,231.9400000000,A01A3A,5,1548205972000
1548205983843.7500000000,5,215.9700000000,A01A3A,5,1548205972000
1548205983859.3798828125,5,194.4400000000,A01A3A,5,1548205972000
1548205983875.0000000000,5,170.7800000000,A01A3A,5,1548205972000
1548205983890.6201171875,5,148.9200000000,A01A3A,5,1548205972000
1548205983906.2500000000,5,132.4200000000,A01A3A,5,1548205972000
1548205983921.8798828125,5,123.2700000000,A01A3A,5,1548205972000
1548205983937.5000000000,5,120.9800000000,A01A3A,5,1548205972000
1548205983953.1201171875,5,122.5300000000,A01A3A,5,1548205972000
1548205983968.7500000000,5,123.4800000000,A01A3A,5,1548205972000
1548205983984.3798828125,5,119.7500000000,A01A3A,5,1548205972000
1548205984000.0000000000,5,109.0200000000,A01A3A,5,1548205972000
1548205984015.6201171875,5,91.0500000000,A01A3A,5,1548205972000
1548205984031.2500000000,5,66.9700000000,A01A3A,5,1548205972000
1548205984046.8798828125,5,38.4100000000,A01A3A,5,1548205972000
1548205984062.5000000000,5,6.8700000000,A01A3A,5,1548205972000
1548205984078.1201171875,5,-26.1000000000,A01A3A,5,1548205972000
1548205984093.7500000000,5,-58.6700000000,A01A3A,5,1548205972000
1548205984109.3798828125,5,-88.6400000000,A01A3A,5,1548205972000
1548205984125.0000000000,5,-113.8500000000,A01A3A,5,1548205972000
1548205984140.6201171875,5,-132.9200000000,A01A3A,5,1548205972000
1548205984156.2500000000,5,-145.5900000000,A01A3A,5,1548205972000
1548205984171.8798828125,5,-152.6800000000,A01A3A,5,1548205972000
1548205984187.5000000000,5,-155.6500000000,A01A3A,5,1548205972000
1548205984203.1201171875,5,-155.9700000000,A01A3A,5,1548205972000
1548205984218.7500000000,5,-154.7900000000,A01A3A,5,1548205972000
1548205984234.3798828125,5,-152.8400000000,A01A3A,5,1548205972000
1548205984250.0000000000,5,-150.5400000000,A01A3A,5,1548205972000
1548205984265.6201171875,5,-148.1000000000,A01A3A,5,1548205972000
1548205984281.2500000000,5,-145.6900000000,A01A3A,5,1548205972000
1548205984296.8798828125,5,-143.3700000000,A01A3A,5,1548205972000
1548205984312.5000000000,5,-141.2000000000,A01A3A,5,1548205972000
1548205984328.1201171875,5,-139.1300000000,A01A3A,5,1548205972000
1548205984343.7500000000,5,-137.0200000000,A01A3A,5,1548205972000
1548205984359.3798828125,5,-134.6600000000,A01A3A,5,1548205972000
1548205984375.0000000000,5,-131.6900000000,A01A3A,5,1548205972000
1548205984390.6201171875,5,-127.7500000000,A01A3A,5,1548205972000
1548205984406.2500000000,5,-122.5500000000,A01A3A,5,1548205972000
1548205984421.8798828125,5,-116.1300000000,A01A3A,5,1548205972000
1548205984437.5000000000,5,-108.8900000000,A01A3A,5,1548205972000
1548205984453.1201171875,5,-101.5000000000,A01A3A,5,1548205972000
1548205984468.7500000000,5,-94.6300000000,A01A3A,5,1548205972000
1548205984484.3798828125,5,-88.7000000000,A01A3A,5,1548205972000
1548205984500.0000000000,5,-83.7000000000,A01A3A,5,1548205972000
1548205984515.6201171875,5,-79.3100000000,A01A3A,5,1548205972000
1548205984531.2500000000,5,-75.1200000000,A01A3A,5,1548205972000
1548205984546.8798828125,5,-70.8600000000,A01A3A,5,1548205972000
1548205984562.5000000000,5,-66.5100000000,A01A3A,5,1548205972000
1548205984578.1201171875,5,-62.2100000000,A01A3A,5,1548205972000
1548205984593.7500000000,5,-58.1200000000,A01A3A,5,1548205972000
1548205984609.3798828125,5,-54.3200000000,A01A3A,5,1548205972000
1548205984625.0000000000,5,-50.8700000000,A01A3A,5,1548205972000
1548205984640.6201171875,5,-47.9100000000,A01A3A,5,1548205972000
1548205984656.2500000000,5,-45.8400000000,A01A3A,5,1548205972000
1548205984671.8798828125,5,-45.1400000000,A01A3A,5,1548205972000
1548205984687.5000000000,5,-46.1200000000,A01A3A,5,1548205972000
1548205984703.1201171875,5,-48.6500000000,A01A3A,5,1548205972000
1548205984718.7500000000,5,-51.9100000000,A01A3A,5,1548205972000
1548205984734.3798828125,5,-54.5800000000,A01A3A,5,1548205972000
1548205984750.0000000000,5,-55.2300000000,A01A3A,5,1548205972000
1548205984765.6201171875,5,-52.8600000000,A01A3A,5,1548205972000
1548205984781.2500000000,5,-47.3200000000,A01A3A,5,1548205972000
1548205984796.8798828125,5,-39.3800000000,A01A3A,5,1548205972000
1548205984812.5000000000,5,-30.5200000000,A01A3A,5,1548205972000
1548205984828.1201171875,5,-22.3100000000,A01A3A,5,1548205972000
1548205984843.7500000000,5,-15.9700000000,A01A3A,5,1548205972000
1548205984859.3798828125,5,-11.9700000000,A01A3A,5,1548205972000
1548205984875.0000000000,5,-10.0000000000,A01A3A,5,1548205972000
1548205984890.6201171875,5,-9.2600000000,A01A3A,5,1548205972000
1548205984906.2500000000,5,-8.8900000000,A01A3A,5,1548205972000
1548205984921.8798828125,5,-8.3100000000,A01A3A,5,1548205972000
1548205984937.5000000000,5,-7.4100000000,A01A3A,5,1548205972000
1548205984953.1201171875,5,-6.3800000000,A01A3A,5,1548205972000
1548205984968.7500000000,5,-5.5500000000,A01A3A,5,1548205972000
1548205984984.3798828125,5,-5.1200000000,A01A3A,5,1548205972000
1548205985000.0000000000,5,-5.0500000000,A01A3A,5,1548205972000
1548205985015.6201171875,5,-5.1500000000,A01A3A,5,1548205972000
1548205985031.2500000000,5,-5.1800000000,A01A3A,5,1548205972000
1548205985046.8798828125,5,-4.9900000000,A01A3A,5,1548205972000
1548205985062.5000000000,5,-4.5900000000,A01A3A,5,1548205972000
1548205985078.1201171875,5,-4.1000000000,A01A3A,5,1548205972000
1548205985093.7500000000,5,-3.7200000000,A01A3A,5,1548205972000
1548205985109.3798828125,5,-3.6200000000,A01A3A,5,1548205972000
1548205985125.0000000000,5,-3.8800000000,A01A3A,5,1548205972000
1548205985140.6201171875,5,-4.5100000000,A01A3A,5,1548205972000
1548205985156.2500000000,5,-5.3800000000,A01A3A,5,1548205972000
1548205985171.8798828125,5,-6.2400000000,A01A3A,5,1548205972000
1548205985187.5000000000,5,-6.6900000000,A01A3A,5,1548205972000
1548205985203.1201171875,5,-6.2500000000,A01A3A,5,1548205972000
1548205985218.7500000000,5,-4.5400000000,A01A3A,5,1548205972000
1548205985234.3798828125,5,-1.5100000000,A01A3A,5,1548205972000
1548205985250.0000000000,5,2.4400000000,A01A3A,5,1548205972000
1548205985265.6201171875,5,6.4500000000,A01A3A,5,1548205972000
1548205985281.2500000000,5,9.4400000000,A01A3A,5,1548205972000
1548205985296.8798828125,5,10.4600000000,A01A3A,5,1548205972000
1548205985312.5000000000,5,9.0800000000,A01A3A,5,1548205972000
1548205985328.1201171875,5,5.5700000000,A01A3A,5,1548205972000
1548205985343.7500000000,5,0.8400000000,A01A3A,5,1548205972000
1548205985359.3798828125,5,-3.8600000000,A01A3A,5,1548205972000
1548205985375.0000000000,5,-7.3500000000,A01A3A,5,1548205972000
1548205985390.6201171875,5,-8.8700000000,A01A3A,5,1548205972000
1548205985406.2500000000,5,-8.2500000000,A01A3A,5,1548205972000
1548205985421.8798828125,5,-5.8500000000,A01A3A,5,1548205972000
1548205985437.5000000000,5,-2.3800000000,A01A3A,5,1548205972000
1548205985453.1201171875,5,1.3500000000,A01A3A,5,1548205972000
1548205985468.7500000000,5,4.6700000000,A01A3A,5,1548205972000
1548205985484.3798828125,5,7.1900000000,A01A3A,5,1548205972000
1548205985500.0000000000,5,8.8300000000,A01A3A,5,1548205972000
1548205985515.6201171875,5,9.7900000000,A01A3A,5,1548205972000
1548205985531.2500000000,5,10.3500000000,A01A3A,5,1548205972000
1548205985546.8798828125,5,10.8500000000,A01A3A,5,1548205972000
1548205985562.5000000000,5,11.5400000000,A01A3A,5,1548205972000
1548205985578.1201171875,5,12.5400000000,A01A3A,5,1548205972000
1548205985593.7500000000,5,13.8200000000,A01A3A,5,1548205972000
1548205985609.3798828125,5,15.2000000000,A01A3A,5,1548205972000
1548205985625.0000000000,5,16.3800000000,A01A3A,5,1548205972000
1548205985640.6201171875,5,16.9700000000,A01A3A,5,1548205972000
1548205985656.2500000000,5,16.6200000000,A01A3A,5,1548205972000
1548205985671.8798828125,5,15.1300000000,A01A3A,5,1548205972000
1548205985687.5000000000,5,12.5600000000,A01A3A,5,1548205972000
1548205985703.1201171875,5,9.3200000000,A01A3A,5,1548205972000
1548205985718.7500000000,5,6.0600000000,A01A3A,5,1548205972000
1548205985734.3798828125,5,3.4700000000,A01A3A,5,1548205972000
1548205985750.0000000000,5,2.0400000000,A01A3A,5,1548205972000
1548205985765.6201171875,5,1.8600000000,A01A3A,5,1548205972000
1548205985781.2500000000,5,2.5500000000,A01A3A,5,1548205972000
1548205985796.8798828125,5,3.4500000000,A01A3A,5,1548205972000
1548205985812.5000000000,5,3.7800000000,A01A3A,5,1548205972000
1548205985828.1201171875,5,2.9700000000,A01A3A,5,1548205972000
1548205985843.7500000000,5,0.7800000000,A01A3A,5,1548205972000
1548205985859.3798828125,5,-2.6800000000,A01A3A,5,1548205972000
1548205985875.0000000000,5,-7.0500000000,A01A3A,5,1548205972000
1548205985890.6201171875,5,-11.8800000000,A01A3A,5,1548205972000
1548205985906.2500000000,5,-16.7300000000,A01A3A,5,1548205972000
1548205985921.8798828125,5,-21.2800000000,A01A3A,5,1548205972000
1548205985937.5000000000,5,-25.2500000000,A01A3A,5,1548205972000
1548205985953.1201171875,5,-28.3700000000,A01A3A,5,1548205972000
1548205985968.7500000000,5,-30.3700000000,A01A3A,5,1548205972000
1548205985984.3798828125,5,-30.9100000000,A01A3A,5,1548205972000
1548205986000.0000000000,5,-29.8300000000,A01A3A,5,1548205972000
1548205986015.6201171875,5,-27.1400000000,A01A3A,5,1548205972000
1548205986031.2500000000,5,-23.2100000000,A01A3A,5,1548205972000
1548205986046.8798828125,5,-18.6100000000,A01A3A,5,1548205972000
1548205986062.5000000000,5,-13.9900000000,A01A3A,5,1548205972000
1548205986078.1201171875,5,-9.8200000000,A01A3A,5,1548205972000
1548205986093.7500000000,5,-6.1800000000,A01A3A,5,1548205972000
1548205986109.3798828125,5,-2.7700000000,A01A3A,5,1548205972000
1548205986125.0000000000,5,0.9100000000,A01A3A,5,1548205972000
1548205986140.6201171875,5,5.2900000000,A01A3A,5,1548205972000
1548205986156.2500000000,5,10.4400000000,A01A3A,5,1548205972000
1548205986171.8798828125,5,16.0200000000,A01A3A,5,1548205972000
1548205986187.5000000000,5,21.3600000000,A01A3A,5,1548205972000
1548205986203.1201171875,5,25.7000000000,A01A3A,5,1548205972000
1548205986218.7500000000,5,28.4700000000,A01A3A,5,1548205972000
1548205986234.3798828125,5,29.4800000000,A01A3A,5,1548205972000
1548205986250.0000000000,5,28.9100000000,A01A3A,5,1548205972000
1548205986265.6201171875,5,27.1800000000,A01A3A,5,1548205972000
1548205986281.2500000000,5,24.8000000000,A01A3A,5,1548205972000
1548205986296.8798828125,5,22.1800000000,A01A3A,5,1548205972000
1548205986312.5000000000,5,19.6000000000,A01A3A,5,1548205972000
1548205986328.1201171875,5,17.2600000000,A01A3A,5,1548205972000
1548205986343.7500000000,5,15.3800000000,A01A3A,5,1548205972000
1548205986359.3798828125,5,14.1800000000,A01A3A,5,1548205972000
1548205986375.0000000000,5,13.8600000000,A01A3A,5,1548205972000
1548205986390.6201171875,5,14.4600000000,A01A3A,5,1548205972000
1548205986406.2500000000,5,15.7000000000,A01A3A,5,1548205972000
1548205986421.8798828125,5,16.9900000000,A01A3A,5,1548205972000
1548205986437.5000000000,5,17.5000000000,A01A3A,5,1548205972000
1548205986453.1201171875,5,16.4400000000,A01A3A,5,1548205972000
1548205986468.7500000000,5,13.3500000000,A01A3A,5,1548205972000
1548205986484.3798828125,5,8.3500000000,A01A3A,5,1548205972000
1548205986500.0000000000,5,2.1800000000,A01A3A,5,1548205972000
1548205986515.6201171875,5,-3.9800000000,A01A3A,5,1548205972000
1548205986531.2500000000,5,-8.9100000000,A01A3A,5,1548205972000
1548205986546.8798828125,5,-11.8500000000,A01A3A,5,1548205972000
1548205986562.5000000000,5,-12.7800000000,A01A3A,5,1548205972000
1548205986578.1201171875,5,-12.5100000000,A01A3A,5,1548205972000
1548205986593.7500000000,5,-12.4000000000,A01A3A,5,1548205972000
1548205986609.3798828125,5,-13.7700000000,A01A3A,5,1548205972000
1548205986625.0000000000,5,-17.4400000000,A01A3A,5,1548205972000
1548205986640.6201171875,5,-23.4200000000,A01A3A,5,1548205972000
1548205986656.2500000000,5,-30.8600000000,A01A3A,5,1548205972000
1548205986671.8798828125,5,-38.3700000000,A01A3A,5,1548205972000
1548205986687.5000000000,5,-44.4900000000,A01A3A,5,1548205972000
1548205986703.1201171875,5,-48.1200000000,A01A3A,5,1548205972000
1548205986718.7500000000,5,-48.8700000000,A01A3A,5,1548205972000
1548205986734.3798828125,5,-47.0700000000,A01A3A,5,1548205972000
1548205986750.0000000000,5,-43.6200000000,A01A3A,5,1548205972000
1548205986765.6201171875,5,-39.5700000000,A01A3A,5,1548205972000
1548205986781.2500000000,5,-35.6600000000,A01A3A,5,1548205972000
1548205986796.8798828125,5,-32.0400000000,A01A3A,5,1548205972000
1548205986812.5000000000,5,-28.2400000000,A01A3A,5,1548205972000
1548205986828.1201171875,5,-23.5600000000,A01A3A,5,1548205972000
1548205986843.7500000000,5,-17.7400000000,A01A3A,5,1548205972000
1548205986859.3798828125,5,-11.2600000000,A01A3A,5,1548205972000
1548205986875.0000000000,5,-5.7500000000,A01A3A,5,1548205972000
1548205986890.6201171875,5,-3.2200000000,A01A3A,5,1548205972000
1548205986906.2500000000,5,-5.1500000000,A01A3A,5,1548205972000
1548205986921.8798828125,5,-11.4500000000,A01A3A,5,1548205972000
1548205986937.5000000000,5,-20.4000000000,A01A3A,5,1548205972000
1548205986953.1201171875,5,-29.3700000000,A01A3A,5,1548205972000
1548205986968.7500000000,5,-36.1900000000,A01A3A,5,1548205972000
1548205986984.3798828125,5,-39.9600000000,A01A3A,5,1548205972000
1548205987000.0000000000,5,-40.8800000000,A01A3A,5,1548205972000
1548205987015.6201171875,5,-39.5700000000,A01A3A,5,1548205972000
1548205987031.2500000000,5,-36.5100000000,A01A3A,5,1548205972000
1548205987046.8798828125,5,-32.3800000000,A01A3A,5,1548205972000
1548205987062.5000000000,5,-28.7400000000,A01A3A,5,1548205972000
1548205987078.1201171875,5,-28.2500000000,A01A3A,5,1548205972000
1548205987093.7500000000,5,-33.7300000000,A01A3A,5,1548205972000
1548205987109.3798828125,5,-46.3400000000,A01A3A,5,1548205972000
1548205987125.0000000000,5,-64.1700000000,A01A3A,5,1548205972000
1548205987140.6201171875,5,-82.6300000000,A01A3A,5,1548205972000
1548205987156.2500000000,5,-96.7300000000,A01A3A,5,1548205972000
1548205987171.8798828125,5,-104.0900000000,A01A3A,5,1548205972000
1548205987187.5000000000,5,-106.5700000000,A01A3A,5,1548205972000
1548205987203.1201171875,5,-109.1400000000,A01A3A,5,1548205972000
1548205987218.7500000000,5,-116.5100000000,A01A3A,5,1548205972000
1548205987234.3798828125,5,-129.6800000000,A01A3A,5,1548205972000
1548205987250.0000000000,5,-144.4400000000,A01A3A,5,1548205972000
1548205987265.6201171875,5,-153.1600000000,A01A3A,5,1548205972000
1548205987281.2500000000,5,-148.6800000000,A01A3A,5,1548205972000
1548205987296.8798828125,5,-128.2100000000,A01A3A,5,1548205972000
1548205987312.5000000000,5,-94.9300000000,A01A3A,5,1548205972000
1548205987328.1201171875,5,-56.5800000000,A01A3A,5,1548205972000
1548205987343.7500000000,5,-21.6800000000,A01A3A,5,1548205972000
1548205987359.3798828125,5,4.6700000000,A01A3A,5,1548205972000
1548205987375.0000000000,5,22.8400000000,A01A3A,5,1548205972000
1548205987390.6201171875,5,37.8700000000,A01A3A,5,1548205972000
1548205987406.2500000000,5,55.8800000000,A01A3A,5,1548205972000
1548205987421.8798828125,5,79.9700000000,A01A3A,5,1548205972000
1548205987437.5000000000,5,107.9200000000,A01A3A,5,1548205972000
1548205987453.1201171875,5,133.3100000000,A01A3A,5,1548205972000
1548205987468.7500000000,5,149.2200000000,A01A3A,5,1548205972000
1548205987484.3798828125,5,152.4500000000,A01A3A,5,1548205972000
1548205987500.0000000000,5,145.4800000000,A01A3A,5,1548205972000
1548205987515.6201171875,5,134.9200000000,A01A3A,5,1548205972000
1548205987531.2500000000,5,127.6900000000,A01A3A,5,1548205972000
1548205987546.8798828125,5,127.1000000000,A01A3A,5,1548205972000
1548205987562.5000000000,5,131.5200000000,A01A3A,5,1548205972000
1548205987578.1201171875,5,136.3800000000,A01A3A,5,1548205972000
1548205987593.7500000000,5,137.7700000000,A01A3A,5,1548205972000
1548205987609.3798828125,5,135.2400000000,A01A3A,5,1548205972000
1548205987625.0000000000,5,131.7400000000,A01A3A,5,1548205972000
1548205987640.6201171875,5,131.0200000000,A01A3A,5,1548205972000
1548205987656.2500000000,5,134.6000000000,A01A3A,5,1548205972000
1548205987671.8798828125,5,140.3300000000,A01A3A,5,1548205972000
1548205987687.5000000000,5,143.6700000000,A01A3A,5,1548205972000
1548205987703.1201171875,5,140.3600000000,A01A3A,5,1548205972000
1548205987718.7500000000,5,129.1100000000,A01A3A,5,1548205972000
1548205987734.3798828125,5,112.2400000000,A01A3A,5,1548205972000
1548205987750.0000000000,5,94.3800000000,A01A3A,5,1548205972000
1548205987765.6201171875,5,80.0000000000,A01A3A,5,1548205972000
1548205987781.2500000000,5,71.3700000000,A01A3A,5,1548205972000
1548205987796.8798828125,5,68.0600000000,A01A3A,5,1548205972000
1548205987812.5000000000,5,67.8000000000,A01A3A,5,1548205972000
1548205987828.1201171875,5,67.8900000000,A01A3A,5,1548205972000
1548205987843.7500000000,5,66.4300000000,A01A3A,5,1548205972000
1548205987859.3798828125,5,62.6000000000,A01A3A,5,1548205972000
1548205987875.0000000000,5,56.3200000000,A01A3A,5,1548205972000
1548205987890.6201171875,5,47.8000000000,A01A3A,5,1548205972000
1548205987906.2500000000,5,37.3900000000,A01A3A,5,1548205972000
1548205987921.8798828125,5,25.5900000000,A01A3A,5,1548205972000
1548205987937.5000000000,5,13.1700000000,A01A3A,5,1548205972000
1548205987953.1201171875,5,1.0200000000,A01A3A,5,1548205972000
1548205987968.7500000000,5,-10.0500000000,A01A3A,5,1548205972000
1548205987984.3798828125,5,-19.4200000000,A01A3A,5,1548205972000
1548205988000.0000000000,5,-26.6300000000,A01A3A,5,1548205972000
1548205988015.6201171875,5,-31.3400000000,A01A3A,5,1548205972000
1548205988031.2500000000,5,-33.3000000000,A01A3A,5,1548205972000
1548205988046.8798828125,5,-32.4600000000,A01A3A,5,1548205972000
1548205988062.5000000000,5,-29.1100000000,A01A3A,5,1548205972000
1548205988078.1201171875,5,-24.0200000000,A01A3A,5,1548205972000
1548205988093.7500000000,5,-18.2300000000,A01A3A,5,1548205972000
1548205988109.3798828125,5,-12.8300000000,A01A3A,5,1548205972000
1548205988125.0000000000,5,-8.5700000000,A01A3A,5,1548205972000
1548205988140.6201171875,5,-5.7900000000,A01A3A,5,1548205972000
1548205988156.2500000000,5,-4.4400000000,A01A3A,5,1548205972000
1548205988171.8798828125,5,-4.2900000000,A01A3A,5,1548205972000
1548205988187.5000000000,5,-5.1400000000,A01A3A,5,1548205972000
1548205988203.1201171875,5,-6.7700000000,A01A3A,5,1548205972000
1548205988218.7500000000,5,-8.9500000000,A01A3A,5,1548205972000
1548205988234.3798828125,5,-11.1800000000,A01A3A,5,1548205972000
1548205988250.0000000000,5,-12.8000000000,A01A3A,5,1548205972000
1548205988265.6201171875,5,-13.1200000000,A01A3A,5,1548205972000
1548205988281.2500000000,5,-11.7800000000,A01A3A,5,1548205972000
1548205988296.8798828125,5,-8.9300000000,A01A3A,5,1548205972000
1548205988312.5000000000,5,-5.3200000000,A01A3A,5,1548205972000
1548205988328.1201171875,5,-1.8900000000,A01A3A,5,1548205972000
1548205988343.7500000000,5,0.4900000000,A01A3A,5,1548205972000
1548205988359.3798828125,5,1.4400000000,A01A3A,5,1548205972000
1548205988375.0000000000,5,1.0800000000,A01A3A,5,1548205972000
1548205988390.6201171875,5,-0.0800000000,A01A3A,5,1548205972000
1548205988406.2500000000,5,-1.4800000000,A01A3A,5,1548205972000
1548205988421.8798828125,5,-2.7400000000,A01A3A,5,1548205972000
1548205988437.5000000000,5,-3.7800000000,A01A3A,5,1548205972000
1548205988453.1201171875,5,-4.6700000000,A01A3A,5,1548205972000
1548205988468.7500000000,5,-5.5000000000,A01A3A,5,1548205972000
1548205988484.3798828125,5,-6.2200000000,A01A3A,5,1548205972000
1548205988500.0000000000,5,-6.7000000000,A01A3A,5,1548205972000
1548205988515.6201171875,5,-6.8100000000,A01A3A,5,1548205972000
1548205988531.2500000000,5,-6.5600000000,A01A3A,5,1548205972000
1548205988546.8798828125,5,-6.1200000000,A01A3A,5,1548205972000
1548205988562.5000000000,5,-5.7600000000,A01A3A,5,1548205972000
1548205988578.1201171875,5,-5.7000000000,A01A3A,5,1548205972000
1548205988593.7500000000,5,-6.0600000000,A01A3A,5,1548205972000
1548205988609.3798828125,5,-6.8100000000,A01A3A,5,1548205972000
1548205988625.0000000000,5,-7.8700000000,A01A3A,5,1548205972000
1548205988640.6201171875,5,-9.1800000000,A01A3A,5,1548205972000
1548205988656.2500000000,5,-10.7000000000,A01A3A,5,1548205972000
1548205988671.8798828125,5,-12.4200000000,A01A3A,5,1548205972000
1548205988687.5000000000,5,-14.2200000000,A01A3A,5,1548205972000
1548205988703.1201171875,5,-15.8900000000,A01A3A,5,1548205972000
1548205988718.7500000000,5,-17.1800000000,A01A3A,5,1548205972000
1548205988734.3798828125,5,-17.8400000000,A01A3A,5,1548205972000
1548205988750.0000000000,5,-17.7600000000,A01A3A,5,1548205972000
1548205988765.6201171875,5,-16.9900000000,A01A3A,5,1548205972000
1548205988781.2500000000,5,-15.7700000000,A01A3A,5,1548205972000
1548205988796.8798828125,5,-14.4800000000,A01A3A,5,1548205972000
1548205988812.5000000000,5,-13.5100000000,A01A3A,5,1548205972000
1548205988828.1201171875,5,-13.1700000000,A01A3A,5,1548205972000
1548205988843.7500000000,5,-13.6200000000,A01A3A,5,1548205972000
1548205988859.3798828125,5,-14.7700000000,A01A3A,5,1548205972000
1548205988875.0000000000,5,-16.3300000000,A01A3A,5,1548205972000
1548205988890.6201171875,5,-17.8300000000,A01A3A,5,1548205972000
1548205988906.2500000000,5,-18.7500000000,A01A3A,5,1548205972000
1548205988921.8798828125,5,-18.6800000000,A01A3A,5,1548205972000
1548205988937.5000000000,5,-17.4000000000,A01A3A,5,1548205972000
1548205988953.1201171875,5,-14.9400000000,A01A3A,5,1548205972000
1548205988968.7500000000,5,-11.5500000000,A01A3A,5,1548205972000
1548205988984.3798828125,5,-7.6600000000,A01A3A,5,1548205972000
1548205989000.0000000000,5,-3.7200000000,A01A3A,5,1548205972000
1548205989015.6201171875,5,-0.1400000000,A01A3A,5,1548205972000
1548205989031.2500000000,5,2.7800000000,A01A3A,5,1548205972000
1548205989046.8798828125,5,4.8800000000,A01A3A,5,1548205972000
1548205989062.5000000000,5,6.1500000000,A01A3A,5,1548205972000
1548205989078.1201171875,5,6.6900000000,A01A3A,5,1548205972000
1548205989093.7500000000,5,6.6700000000,A01A3A,5,1548205972000
1548205989109.3798828125,5,6.2400000000,A01A3A,5,1548205972000
1548205989125.0000000000,5,5.5400000000,A01A3A,5,1548205972000
1548205989140.6201171875,5,4.6500000000,A01A3A,5,1548205972000
1548205989156.2500000000,5,3.6300000000,A01A3A,5,1548205972000
1548205989171.8798828125,5,2.5700000000,A01A3A,5,1548205972000
1548205989187.5000000000,5,1.5600000000,A01A3A,5,1548205972000
1548205989203.1201171875,5,0.7300000000,A01A3A,5,1548205972000
1548205989218.7500000000,5,0.1500000000,A01A3A,5,1548205972000
1548205989234.3798828125,5,-0.1600000000,A01A3A,5,1548205972000
1548205989250.0000000000,5,-0.2800000000,A01A3A,5,1548205972000
1548205989265.6201171875,5,-0.3500000000,A01A3A,5,1548205972000
1548205989281.2500000000,5,-0.4300000000,A01A3A,5,1548205972000
1548205989296.8798828125,5,-0.5200000000,A01A3A,5,1548205972000
1548205989312.5000000000,5,-0.6200000000,A01A3A,5,1548205972000
1548205989328.1201171875,5,-0.6900000000,A01A3A,5,1548205972000
1548205989343.7500000000,5,-0.7400000000,A01A3A,5,1548205972000
1548205989359.3798828125,5,-0.8700000000,A01A3A,5,1548205972000
1548205989375.0000000000,5,-1.1400000000,A01A3A,5,1548205972000
1548205989390.6201171875,5,-1.6000000000,A01A3A,5,1548205972000
1548205989406.2500000000,5,-2.1900000000,A01A3A,5,1548205972000
1548205989421.8798828125,5,-2.8300000000,A01A3A,5,1548205972000
1548205989437.5000000000,5,-3.4500000000,A01A3A,5,1548205972000
1548205989453.1201171875,5,-4.0500000000,A01A3A,5,1548205972000
1548205989468.7500000000,5,-4.6900000000,A01A3A,5,1548205972000
1548205989484.3798828125,5,-5.4400000000,A01A3A,5,1548205972000
1548205989500.0000000000,5,-6.4000000000,A01A3A,5,1548205972000
1548205989515.6201171875,5,-7.5700000000,A01A3A,5,1548205972000
1548205989531.2500000000,5,-8.9200000000,A01A3A,5,1548205972000
1548205989546.8798828125,5,-10.3300000000,A01A3A,5,1548205972000
1548205989562.5000000000,5,-11.5800000000,A01A3A,5,1548205972000
1548205989578.1201171875,5,-12.3600000000,A01A3A,5,1548205972000
1548205989593.7500000000,5,-12.3200000000,A01A3A,5,1548205972000
1548205989609.3798828125,5,-11.2600000000,A01A3A,5,1548205972000
1548205989625.0000000000,5,-9.1900000000,A01A3A,5,1548205972000
1548205989640.6201171875,5,-6.4300000000,A01A3A,5,1548205972000
1548205989656.2500000000,5,-3.5200000000,A01A3A,5,1548205972000
1548205989671.8798828125,5,-1.0500000000,A01A3A,5,1548205972000
1548205989687.5000000000,5,0.6600000000,A01A3A,5,1548205972000
1548205989703.1201171875,5,1.5700000000,A01A3A,5,1548205972000
1548205989718.7500000000,5,1.9800000000,A01A3A,5,1548205972000
1548205989734.3798828125,5,2.2900000000,A01A3A,5,1548205972000
1548205989750.0000000000,5,2.8000000000,A01A3A,5,1548205972000
1548205989765.6201171875,5,3.5300000000,A01A3A,5,1548205972000
1548205989781.2500000000,5,4.2800000000,A01A3A,5,1548205972000
1548205989796.8798828125,5,4.7300000000,A01A3A,5,1548205972000
1548205989812.5000000000,5,4.6300000000,A01A3A,5,1548205972000
1548205989828.1201171875,5,3.9600000000,A01A3A,5,1548205972000
1548205989843.7500000000,5,2.8800000000,A01A3A,5,1548205972000
1548205989859.3798828125,5,1.6400000000,A01A3A,5,1548205972000
1548205989875.0000000000,5,0.4700000000,A01A3A,5,1548205972000
1548205989890.6201171875,5,-0.4900000000,A01A3A,5,1548205972000
1548205989906.2500000000,5,-1.2000000000,A01A3A,5,1548205972000
1548205989921.8798828125,5,-1.6400000000,A01A3A,5,1548205972000
1548205989937.5000000000,5,-1.7400000000,A01A3A,5,1548205972000
1548205989953.1201171875,5,-1.4800000000,A01A3A,5,1548205972000
1548205989968.7500000000,5,-0.8400000000,A01A3A,5,1548205972000
1548205989984.3798828125,5,0.0900000000,A01A3A,5,1548205972000
1548205990000.0000000000,5,1.0800000000,A01A3A,5,1548205972000
1548205990015.6201171875,5,1.8300000000,A01A3A,5,1548205972000
1548205990031.2500000000,5,2.0600000000,A01A3A,5,1548205972000
1548205990046.8798828125,5,1.5800000000,A01A3A,5,1548205972000
1548205990062.5000000000,5,0.4700000000,A01A3A,5,1548205972000
1548205990078.1201171875,5,-1.0200000000,A01A3A,5,1548205972000
1548205990093.7500000000,5,-2.5000000000,A01A3A,5,1548205972000
1548205990109.3798828125,5,-3.6100000000,A01A3A,5,1548205972000
1548205990125.0000000000,5,-4.2000000000,A01A3A,5,1548205972000
1548205990140.6201171875,5,-4.3200000000,A01A3A,5,1548205972000
1548205990156.2500000000,5,-4.2400000000,A01A3A,5,1548205972000
1548205990171.8798828125,5,-4.2700000000,A01A3A,5,1548205972000
1548205990187.5000000000,5,-4.5600000000,A01A3A,5,1548205972000
1548205990203.1201171875,5,-5.1200000000,A01A3A,5,1548205972000
1548205990218.7500000000,5,-5.7800000000,A01A3A,5,1548205972000
1548205990234.3798828125,5,-6.3400000000,A01A3A,5,1548205972000
1548205990250.0000000000,5,-6.6900000000,A01A3A,5,1548205972000
1548205990265.6201171875,5,-6.8300000000,A01A3A,5,1548205972000
1548205990281.2500000000,5,-6.8200000000,A01A3A,5,1548205972000
1548205990296.8798828125,5,-6.6900000000,A01A3A,5,1548205972000
1548205990312.5000000000,5,-6.3500000000,A01A3A,5,1548205972000
1548205990328.1201171875,5,-5.6000000000,A01A3A,5,1548205972000
1548205990343.7500000000,5,-4.2400000000,A01A3A,5,1548205972000
1548205990359.3798828125,5,-2.1600000000,A01A3A,5,1548205972000
1548205990375.0000000000,5,0.5200000000,A01A3A,5,1548205972000
1548205990390.6201171875,5,3.5500000000,A01A3A,5,1548205972000
1548205990406.2500000000,5,6.5200000000,A01A3A,5,1548205972000
1548205990421.8798828125,5,9.0800000000,A01A3A,5,1548205972000
1548205990437.5000000000,5,11.0300000000,A01A3A,5,1548205972000
1548205990453.1201171875,5,12.4200000000,A01A3A,5,1548205972000
1548205990468.7500000000,5,13.5700000000,A01A3A,5,1548205972000
1548205990484.3798828125,5,14.9900000000,A01A3A,5,1548205972000
1548205990500.0000000000,5,17.2000000000,A01A3A,5,1548205972000
1548205990515.6201171875,5,20.6700000000,A01A3A,5,1548205972000
1548205990531.2500000000,5,25.5700000000,A01A3A,5,1548205972000
1548205990546.8798828125,5,31.5900000000,A01A3A,5,1548205972000
1548205990562.5000000000,5,37.9100000000,A01A3A,5,1548205972000
1548205990578.1201171875,5,43.2300000000,A01A3A,5,1548205972000
1548205990593.7500000000,5,46.1000000000,A01A3A,5,1548205972000
1548205990609.3798828125,5,45.4800000000,A01A3A,5,1548205972000
1548205990625.0000000000,5,41.3800000000,A01A3A,5,1548205972000
1548205990640.6201171875,5,35.3200000000,A01A3A,5,1548205972000
1548205990656.2500000000,5,30.2500000000,A01A3A,5,1548205972000
1548205990671.8798828125,5,29.9000000000,A01A3A,5,1548205972000
1548205990687.5000000000,5,37.6700000000,A01A3A,5,1548205972000
1548205990703.1201171875,5,55.3700000000,A01A3A,5,1548205972000
1548205990718.7500000000,5,82.3800000000,A01A3A,5,1548205972000
1548205990734.3798828125,5,115.4200000000,A01A3A,5,1548205972000
1548205990750.0000000000,5,149.2800000000,A01A3A,5,1548205972000
1548205990765.6201171875,5,178.2700000000,A01A3A,5,1548205972000
1548205990781.2500000000,5,197.9200000000,A01A3A,5,1548205972000
1548205990796.8798828125,5,206.3300000000,A01A3A,5,1548205972000
1548205990812.5000000000,5,204.6100000000,A01A3A,5,1548205972000
1548205990828.1201171875,5,196.1600000000,A01A3A,5,1548205972000
1548205990843.7500000000,5,185.1500000000,A01A3A,5,1548205972000
1548205990859.3798828125,5,174.7600000000,A01A3A,5,1548205972000
1548205990875.0000000000,5,166.1200000000,A01A3A,5,1548205972000
1548205990890.6201171875,5,158.4100000000,A01A3A,5,1548205972000
1548205990906.2500000000,5,149.8000000000,A01A3A,5,1548205972000
1548205990921.8798828125,5,138.7400000000,A01A3A,5,1548205972000
1548205990937.5000000000,5,124.6400000000,A01A3A,5,1548205972000
1548205990953.1201171875,5,107.7600000000,A01A3A,5,1548205972000
1548205990968.7500000000,5,88.5600000000,A01A3A,5,1548205972000
1548205990984.3798828125,5,67.2100000000,A01A3A,5,1548205972000
1548205991000.0000000000,5,43.5500000000,A01A3A,5,1548205972000
1548205991015.6201171875,5,17.5100000000,A01A3A,5,1548205972000
1548205991031.2500000000,5,-10.4400000000,A01A3A,5,1548205972000
1548205991046.8798828125,5,-39.5800000000,A01A3A,5,1548205972000
1548205991062.5000000000,5,-69.6000000000,A01A3A,5,1548205972000
1548205991078.1201171875,5,-101.1300000000,A01A3A,5,1548205972000
1548205991093.7500000000,5,-135.4200000000,A01A3A,5,1548205972000
1548205991109.3798828125,5,-172.9400000000,A01A3A,5,1548205972000
1548205991125.0000000000,5,-211.8800000000,A01A3A,5,1548205972000
1548205991140.6201171875,5,-247.5000000000,A01A3A,5,1548205972000
1548205991156.2500000000,5,-273.3600000000,A01A3A,5,1548205972000
1548205991171.8798828125,5,-283.8700000000,A01A3A,5,1548205972000
1548205991187.5000000000,5,-276.9000000000,A01A3A,5,1548205972000
1548205991203.1201171875,5,-254.9700000000,A01A3A,5,1548205972000
1548205991218.7500000000,5,-224.1400000000,A01A3A,5,1548205972000
1548205991234.3798828125,5,-191.4100000000,A01A3A,5,1548205972000
1548205991250.0000000000,5,-161.9700000000,A01A3A,5,1548205972000
1548205991265.6201171875,5,-137.7900000000,A01A3A,5,1548205972000
1548205991281.2500000000,5,-118.0500000000,A01A3A,5,1548205972000
1548205991296.8798828125,5,-100.9100000000,A01A3A,5,1548205972000
1548205991312.5000000000,5,-85.0500000000,A01A3A,5,1548205972000
1548205991328.1201171875,5,-70.4300000000,A01A3A,5,1548205972000
1548205991343.7500000000,5,-57.7600000000,A01A3A,5,1548205972000
1548205991359.3798828125,5,-47.5400000000,A01A3A,5,1548205972000
1548205991375.0000000000,5,-39.3500000000,A01A3A,5,1548205972000
1548205991390.6201171875,5,-31.9600000000,A01A3A,5,1548205972000
1548205991406.2500000000,5,-24.1500000000,A01A3A,5,1548205972000
1548205991421.8798828125,5,-15.4000000000,A01A3A,5,1548205972000
1548205991437.5000000000,5,-6.1300000000,A01A3A,5,1548205972000
1548205991453.1201171875,5,2.5900000000,A01A3A,5,1548205972000
1548205991468.7500000000,5,9.7500000000,A01A3A,5,1548205972000
1548205991484.3798828125,5,14.9800000000,A01A3A,5,1548205972000
1548205991500.0000000000,5,18.6300000000,A01A3A,5,1548205972000
1548205991515.6201171875,5,21.4000000000,A01A3A,5,1548205972000
1548205991531.2500000000,5,23.9100000000,A01A3A,5,1548205972000
1548205991546.8798828125,5,26.3100000000,A01A3A,5,1548205972000
1548205991562.5000000000,5,28.2400000000,A01A3A,5,1548205972000
1548205991578.1201171875,5,29.0800000000,A01A3A,5,1548205972000
1548205991593.7500000000,5,28.2700000000,A01A3A,5,1548205972000
1548205991609.3798828125,5,25.6400000000,A01A3A,5,1548205972000
1548205991625.0000000000,5,21.5600000000,A01A3A,5,1548205972000
1548205991640.6201171875,5,16.9100000000,A01A3A,5,1548205972000
1548205991656.2500000000,5,12.8200000000,A01A3A,5,1548205972000
1548205991671.8798828125,5,10.2900000000,A01A3A,5,1548205972000
1548205991687.5000000000,5,9.8800000000,A01A3A,5,1548205972000
1548205991703.1201171875,5,11.4800000000,A01A3A,5,1548205972000
1548205991718.7500000000,5,14.3500000000,A01A3A,5,1548205972000
1548205991734.3798828125,5,17.4000000000,A01A3A,5,1548205972000
1548205991750.0000000000,5,19.4700000000,A01A3A,5,1548205972000
1548205991765.6201171875,5,19.7500000000,A01A3A,5,1548205972000
1548205991781.2500000000,5,17.9500000000,A01A3A,5,1548205972000
1548205991796.8798828125,5,14.3600000000,A01A3A,5,1548205972000
1548205991812.5000000000,5,9.7300000000,A01A3A,5,1548205972000
1548205991828.1201171875,5,5.0800000000,A01A3A,5,1548205972000
1548205991843.7500000000,5,1.3100000000,A01A3A,5,1548205972000
1548205991859.3798828125,5,-1.0300000000,A01A3A,5,1548205972000
1548205991875.0000000000,5,-1.9900000000,A01A3A,5,1548205972000
1548205991890.6201171875,5,-2.2300000000,A01A3A,5,1548205972000
1548205991906.2500000000,5,-2.7600000000,A01A3A,5,1548205972000
1548205991921.8798828125,5,-4.4600000000,A01A3A,5,1548205972000
1548205991937.5000000000,5,-7.7400000000,A01A3A,5,1548205972000
1548205991953.1201171875,5,-12.2900000000,A01A3A,5,1548205972000
1548205991968.7500000000,5,-17.2300000000,A01A3A,5,1548205972000
1548205991984.3798828125,5,-21.5500000000,A01A3A,5,1548205972000
1548205992000.0000000000,5,-24.4900000000,A01A3A,5,1548205972000
1548205992015.6201171875,5,-25.8100000000,A01A3A,5,1548205972000
1548205992031.2500000000,5,-25.8000000000,A01A3A,5,1548205972000
1548205992046.8798828125,5,-25.0300000000,A01A3A,5,1548205972000
1548205992062.5000000000,5,-24.1600000000,A01A3A,5,1548205972000
1548205992078.1201171875,5,-23.6700000000,A01A3A,5,1548205972000
1548205992093.7500000000,5,-23.8100000000,A01A3A,5,1548205972000
1548205992109.3798828125,5,-24.6300000000,A01A3A,5,1548205972000
1548205992125.0000000000,5,-26.0000000000,A01A3A,5,1548205972000
1548205992140.6201171875,5,-27.6700000000,A01A3A,5,1548205972000
1548205992156.2500000000,5,-29.2600000000,A01A3A,5,1548205972000
1548205992171.8798828125,5,-30.3400000000,A01A3A,5,1548205972000
1548205992187.5000000000,5,-30.4600000000,A01A3A,5,1548205972000
1548205992203.1201171875,5,-29.3600000000,A01A3A,5,1548205972000
1548205992218.7500000000,5,-27.0400000000,A01A3A,5,1548205972000
1548205992234.3798828125,5,-23.8300000000,A01A3A,5,1548205972000
1548205992250.0000000000,5,-20.3900000000,A01A3A,5,1548205972000
1548205992265.6201171875,5,-17.4500000000,A01A3A,5,1548205972000
1548205992281.2500000000,5,-15.6400000000,A01A3A,5,1548205972000
1548205992296.8798828125,5,-15.2400000000,A01A3A,5,1548205972000
1548205992312.5000000000,5,-16.1400000000,A01A3A,5,1548205972000
1548205992328.1201171875,5,-17.8100000000,A01A3A,5,1548205972000
1548205992343.7500000000,5,-19.5000000000,A01A3A,5,1548205972000
1548205992359.3798828125,5,-20.4000000000,A01A3A,5,1548205972000
1548205992375.0000000000,5,-19.9000000000,A01A3A,5,1548205972000
1548205992390.6201171875,5,-17.7000000000,A01A3A,5,1548205972000
1548205992406.2500000000,5,-13.9600000000,A01A3A,5,1548205972000
1548205992421.8798828125,5,-9.2900000000,A01A3A,5,1548205972000
1548205992437.5000000000,5,-4.4600000000,A01A3A,5,1548205972000
1548205992453.1201171875,5,-0.3000000000,A01A3A,5,1548205972000
1548205992468.7500000000,5,2.6900000000,A01A3A,5,1548205972000
1548205992484.3798828125,5,4.3900000000,A01A3A,5,1548205972000
1548205992500.0000000000,5,5.1200000000,A01A3A,5,1548205972000
1548205992515.6201171875,5,5.3400000000,A01A3A,5,1548205972000
1548205992531.2500000000,5,5.5000000000,A01A3A,5,1548205972000
1548205992546.8798828125,5,5.7500000000,A01A3A,5,1548205972000
1548205992562.5000000000,5,6.0100000000,A01A3A,5,1548205972000
1548205992578.1201171875,5,6.0900000000,A01A3A,5,1548205972000
1548205992593.7500000000,5,5.8200000000,A01A3A,5,1548205972000
1548205992609.3798828125,5,5.2100000000,A01A3A,5,1548205972000
1548205992625.0000000000,5,4.4500000000,A01A3A,5,1548205972000
1548205992640.6201171875,5,3.8300000000,A01A3A,5,1548205972000
1548205992656.2500000000,5,3.6300000000,A01A3A,5,1548205972000
1548205992671.8798828125,5,3.9500000000,A01A3A,5,1548205972000
1548205992687.5000000000,5,4.7600000000,A01A3A,5,1548205972000
1548205992703.1201171875,5,5.8500000000,A01A3A,5,1548205972000
1548205992718.7500000000,5,6.8300000000,A01A3A,5,1548205972000
1548205992734.3798828125,5,7.2900000000,A01A3A,5,1548205972000
1548205992750.0000000000,5,6.8400000000,A01A3A,5,1548205972000
1548205992765.6201171875,5,5.2500000000,A01A3A,5,1548205972000
1548205992781.2500000000,5,2.5900000000,A01A3A,5,1548205972000
1548205992796.8798828125,5,-0.7700000000,A01A3A,5,1548205972000
1548205992812.5000000000,5,-4.2400000000,A01A3A,5,1548205972000
1548205992828.1201171875,5,-7.1900000000,A01A3A,5,1548205972000
1548205992843.7500000000,5,-9.1800000000,A01A3A,5,1548205972000
1548205992859.3798828125,5,-10.1100000000,A01A3A,5,1548205972000
1548205992875.0000000000,5,-10.2600000000,A01A3A,5,1548205972000
1548205992890.6201171875,5,-10.1200000000,A01A3A,5,1548205972000
1548205992906.2500000000,5,-10.1300000000,A01A3A,5,1548205972000
1548205992921.8798828125,5,-10.5800000000,A01A3A,5,1548205972000
1548205992937.5000000000,5,-11.4900000000,A01A3A,5,1548205972000
1548205992953.1201171875,5,-12.7200000000,A01A3A,5,1548205972000
1548205992968.7500000000,5,-14.1100000000,A01A3A,5,1548205972000
1548205992984.3798828125,5,-15.5800000000,A01A3A,5,1548205972000
1548205993000.0000000000,5,-17.0500000000,A01A3A,5,1548205972000
1548205993015.6201171875,5,-18.3900000000,A01A3A,5,1548205972000
1548205993031.2500000000,5,-19.2200000000,A01A3A,5,1548205972000
1548205993046.8798828125,5,-19.1100000000,A01A3A,5,1548205972000
1548205993062.5000000000,5,-17.5700000000,A01A3A,5,1548205972000
1548205993078.1201171875,5,-14.5000000000,A01A3A,5,1548205972000
1548205993093.7500000000,5,-10.2300000000,A01A3A,5,1548205972000
1548205993109.3798828125,5,-5.5800000000,A01A3A,5,1548205972000
1548205993125.0000000000,5,-1.5600000000,A01A3A,5,1548205972000
1548205993140.6201171875,5,1.0200000000,A01A3A,5,1548205972000
1548205993156.2500000000,5,1.8100000000,A01A3A,5,1548205972000
1548205993171.8798828125,5,1.1800000000,A01A3A,5,1548205972000
1548205993187.5000000000,5,-0.0400000000,A01A3A,5,1548205972000
1548205993203.1201171875,5,-0.8600000000,A01A3A,5,1548205972000
1548205993218.7500000000,5,-0.6400000000,A01A3A,5,1548205972000
1548205993234.3798828125,5,0.7000000000,A01A3A,5,1548205972000
1548205993250.0000000000,5,2.5900000000,A01A3A,5,1548205972000
1548205993265.6201171875,5,4.1100000000,A01A3A,5,1548205972000
1548205993281.2500000000,5,4.4800000000,A01A3A,5,1548205972000
1548205993296.8798828125,5,3.4100000000,A01A3A,5,1548205972000
1548205993312.5000000000,5,1.2200000000,A01A3A,5,1548205972000
1548205993328.1201171875,5,-1.3100000000,A01A3A,5,1548205972000
1548205993343.7500000000,5,-3.3300000000,A01A3A,5,1548205972000
1548205993359.3798828125,5,-4.3300000000,A01A3A,5,1548205972000
1548205993375.0000000000,5,-4.2700000000,A01A3A,5,1548205972000
1548205993390.6201171875,5,-3.4900000000,A01A3A,5,1548205972000
1548205993406.2500000000,5,-2.4800000000,A01A3A,5,1548205972000
1548205993421.8798828125,5,-1.5300000000,A01A3A,5,1548205972000
1548205993437.5000000000,5,-0.7100000000,A01A3A,5,1548205972000
1548205993453.1201171875,5,0.1100000000,A01A3A,5,1548205972000
1548205993468.7500000000,5,0.9800000000,A01A3A,5,1548205972000
1548205993484.3798828125,5,1.7200000000,A01A3A,5,1548205972000
1548205993500.0000000000,5,1.9400000000,A01A3A,5,1548205972000
1548205993515.6201171875,5,1.2700000000,A01A3A,5,1548205972000
1548205993531.2500000000,5,-0.4100000000,A01A3A,5,1548205972000
1548205993546.8798828125,5,-2.8800000000,A01A3A,5,1548205972000
1548205993562.5000000000,5,-5.5400000000,A01A3A,5,1548205972000
1548205993578.1201171875,5,-7.7400000000,A01A3A,5,1548205972000
1548205993593.7500000000,5,-9.0700000000,A01A3A,5,1548205972000
1548205993609.3798828125,5,-9.4600000000,A01A3A,5,1548205972000
1548205993625.0000000000,5,-9.2700000000,A01A3A,5,1548205972000
1548205993640.6201171875,5,-9.0600000000,A01A3A,5,1548205972000
1548205993656.2500000000,5,-9.4000000000,A01A3A,5,1548205972000
1548205993671.8798828125,5,-10.6200000000,A01A3A,5,1548205972000
1548205993687.5000000000,5,-12.7100000000,A01A3A,5,1548205972000
1548205993703.1201171875,5,-15.2900000000,A01A3A,5,1548205972000
1548205993718.7500000000,5,-17.7800000000,A01A3A,5,1548205972000
1548205993734.3798828125,5,-19.5100000000,A01A3A,5,1548205972000
1548205993750.0000000000,5,-19.9800000000,A01A3A,5,1548205972000
1548205993765.6201171875,5,-18.9100000000,A01A3A,5,1548205972000
1548205993781.2500000000,5,-16.3600000000,A01A3A,5,1548205972000
1548205993796.8798828125,5,-12.7000000000,A01A3A,5,1548205972000
1548205993812.5000000000,5,-8.4000000000,A01A3A,5,1548205972000
1548205993828.1201171875,5,-3.9800000000,A01A3A,5,1548205972000
1548205993843.7500000000,5,0.1400000000,A01A3A,5,1548205972000
1548205993859.3798828125,5,3.6600000000,A01A3A,5,1548205972000
1548205993875.0000000000,5,6.3800000000,A01A3A,5,1548205972000
1548205993890.6201171875,5,8.1200000000,A01A3A,5,1548205972000
1548205993906.2500000000,5,8.7500000000,A01A3A,5,1548205972000
1548205993921.8798828125,5,8.2000000000,A01A3A,5,1548205972000
1548205993937.5000000000,5,6.6300000000,A01A3A,5,1548205972000
1548205993953.1201171875,5,4.4100000000,A01A3A,5,1548205972000
1548205993968.7500000000,5,2.0900000000,A01A3A,5,1548205972000
1548205993984.3798828125,5,0.2300000000,A01A3A,5,1548205972000
1548205994000.0000000000,5,-0.7700000000,A01A3A,5,1548205972000
1548205994015.6201171875,5,-0.8600000000,A01A3A,5,1548205972000
1548205994031.2500000000,5,-0.2400000000,A01A3A,5,1548205972000
1548205994046.8798828125,5,0.6900000000,A01A3A,5,1548205972000
1548205994062.5000000000,5,1.5800000000,A01A3A,5,1548205972000
1548205994078.1201171875,5,2.2300000000,A01A3A,5,1548205972000
1548205994093.7500000000,5,2.5800000000,A01A3A,5,1548205972000
1548205994109.3798828125,5,2.6700000000,A01A3A,5,1548205972000
1548205994125.0000000000,5,2.5100000000,A01A3A,5,1548205972000
1548205994140.6201171875,5,2.0600000000,A01A3A,5,1548205972000
1548205994156.2500000000,5,1.2900000000,A01A3A,5,1548205972000
1548205994171.8798828125,5,0.2200000000,A01A3A,5,1548205972000
1548205994187.5000000000,5,-0.9800000000,A01A3A,5,1548205972000
1548205994203.1201171875,5,-2.1100000000,A01A3A,5,1548205972000
1548205994218.7500000000,5,-2.9900000000,A01A3A,5,1548205972000
1548205994234.3798828125,5,-3.5800000000,A01A3A,5,1548205972000
1548205994250.0000000000,5,-3.9800000000,A01A3A,5,1548205972000
1548205994265.6201171875,5,-4.3800000000,A01A3A,5,1548205972000
1548205994281.2500000000,5,-5.0000000000,A01A3A,5,1548205972000
1548205994296.8798828125,5,-5.9900000000,A01A3A,5,1548205972000
1548205994312.5000000000,5,-7.4500000000,A01A3A,5,1548205972000
1548205994328.1201171875,5,-9.4100000000,A01A3A,5,1548205972000
1548205994343.7500000000,5,-11.8300000000,A01A3A,5,1548205972000
1548205994359.3798828125,5,-14.5200000000,A01A3A,5,1548205972000
1548205994375.0000000000,5,-17.0700000000,A01A3A,5,1548205972000
1548205994390.6201171875,5,-18.8300000000,A01A3A,5,1548205972000
1548205994406.2500000000,5,-19.0900000000,A01A3A,5,1548205972000
1548205994421.8798828125,5,-17.3400000000,A01A3A,5,1548205972000
1548205994437.5000000000,5,-13.5400000000,A01A3A,5,1548205972000
1548205994453.1201171875,5,-8.2200000000,A01A3A,5,1548205972000
1548205994468.7500000000,5,-2.3900000000,A01A3A,5,1548205972000
1548205994484.3798828125,5,2.7900000000,A01A3A,5,1548205972000
1548205994500.0000000000,5,6.4600000000,A01A3A,5,1548205972000
1548205994515.6201171875,5,8.2900000000,A01A3A,5,1548205972000
1548205994531.2500000000,5,8.5500000000,A01A3A,5,1548205972000
1548205994546.8798828125,5,7.8700000000,A01A3A,5,1548205972000
1548205994562.5000000000,5,6.9800000000,A01A3A,5,1548205972000
1548205994578.1201171875,5,6.3600000000,A01A3A,5,1548205972000
1548205994593.7500000000,5,6.1600000000,A01A3A,5,1548205972000
1548205994609.3798828125,5,6.2700000000,A01A3A,5,1548205972000
1548205994625.0000000000,5,6.4400000000,A01A3A,5,1548205972000
1548205994640.6201171875,5,6.5200000000,A01A3A,5,1548205972000
1548205994656.2500000000,5,6.4700000000,A01A3A,5,1548205972000
1548205994671.8798828125,5,6.3400000000,A01A3A,5,1548205972000
1548205994687.5000000000,5,6.2100000000,A01A3A,5,1548205972000
1548205994703.1201171875,5,6.0500000000,A01A3A,5,1548205972000
1548205994718.7500000000,5,5.7600000000,A01A3A,5,1548205972000
1548205994734.3798828125,5,5.2300000000,A01A3A,5,1548205972000
1548205994750.0000000000,5,4.3800000000,A01A3A,5,1548205972000
1548205994765.6201171875,5,3.2700000000,A01A3A,5,1548205972000
1548205994781.2500000000,5,2.0700000000,A01A3A,5,1548205972000
1548205994796.8798828125,5,1.0000000000,A01A3A,5,1548205972000
1548205994812.5000000000,5,0.2300000000,A01A3A,5,1548205972000
1548205994828.1201171875,5,-0.2100000000,A01A3A,5,1548205972000
1548205994843.7500000000,5,-0.4300000000,A01A3A,5,1548205972000
1548205994859.3798828125,5,-0.6700000000,A01A3A,5,1548205972000
1548205994875.0000000000,5,-1.2600000000,A01A3A,5,1548205972000
1548205994890.6201171875,5,-2.4500000000,A01A3A,5,1548205972000
1548205994906.2500000000,5,-4.3700000000,A01A3A,5,1548205972000
1548205994921.8798828125,5,-6.9500000000,A01A3A,5,1548205972000
1548205994937.5000000000,5,-9.9600000000,A01A3A,5,1548205972000
1548205994953.1201171875,5,-13.1100000000,A01A3A,5,1548205972000
1548205994968.7500000000,5,-16.1900000000,A01A3A,5,1548205972000
1548205994984.3798828125,5,-19.0700000000,A01A3A,5,1548205972000
1548205995000.0000000000,5,-21.7100000000,A01A3A,5,1548205972000
1548205995015.6201171875,5,-24.0400000000,A01A3A,5,1548205972000
1548205995031.2500000000,5,-25.8000000000,A01A3A,5,1548205972000
1548205995046.8798828125,5,-26.5400000000,A01A3A,5,1548205972000
1548205995062.5000000000,5,-25.8100000000,A01A3A,5,1548205972000
1548205995078.1201171875,5,-23.3900000000,A01A3A,5,1548205972000
1548205995093.7500000000,5,-19.4200000000,A01A3A,5,1548205972000
1548205995109.3798828125,5,-14.4500000000,A01A3A,5,1548205972000
1548205995125.0000000000,5,-9.3000000000,A01A3A,5,1548205972000
1548205995140.6201171875,5,-4.6700000000,A01A3A,5,1548205972000
1548205995156.2500000000,5,-0.9600000000,A01A3A,5,1548205972000
1548205995171.8798828125,5,1.8600000000,A01A3A,5,1548205972000
1548205995187.5000000000,5,4.1000000000,A01A3A,5,1548205972000
1548205995203.1201171875,5,6.1200000000,A01A3A,5,1548205972000
1548205995218.7500000000,5,8.0800000000,A01A3A,5,1548205972000
1548205995234.3798828125,5,9.8900000000,A01A3A,5,1548205972000
1548205995250.0000000000,5,11.2700000000,A01A3A,5,1548205972000
1548205995265.6201171875,5,11.9500000000,A01A3A,5,1548205972000
1548205995281.2500000000,5,11.8300000000,A01A3A,5,1548205972000
1548205995296.8798828125,5,11.0100000000,A01A3A,5,1548205972000
1548205995312.5000000000,5,9.7000000000,A01A3A,5,1548205972000
1548205995328.1201171875,5,8.1400000000,A01A3A,5,1548205972000
1548205995343.7500000000,5,6.5000000000,A01A3A,5,1548205972000
1548205995359.3798828125,5,5.0100000000,A01A3A,5,1548205972000
1548205995375.0000000000,5,3.8900000000,A01A3A,5,1548205972000
1548205995390.6201171875,5,3.4300000000,A01A3A,5,1548205972000
1548205995406.2500000000,5,3.8200000000,A01A3A,5,1548205972000
1548205995421.8798828125,5,5.0200000000,A01A3A,5,1548205972000
1548205995437.5000000000,5,6.6600000000,A01A3A,5,1548205972000
1548205995453.1201171875,5,8.0800000000,A01A3A,5,1548205972000
1548205995468.7500000000,5,8.5700000000,A01A3A,5,1548205972000
1548205995484.3798828125,5,7.6300000000,A01A3A,5,1548205972000
1548205995500.0000000000,5,5.2000000000,A01A3A,5,1548205972000
1548205995515.6201171875,5,1.6200000000,A01A3A,5,1548205972000
1548205995531.2500000000,5,-2.4700000000,A01A3A,5,1548205972000
1548205995546.8798828125,5,-6.4100000000,A01A3A,5,1548205972000
1548205995562.5000000000,5,-9.7100000000,A01A3A,5,1548205972000
1548205995578.1201171875,5,-12.2200000000,A01A3A,5,1548205972000
1548205995593.7500000000,5,-14.0400000000,A01A3A,5,1548205972000
1548205995609.3798828125,5,-15.4800000000,A01A3A,5,1548205972000
1548205995625.0000000000,5,-16.8900000000,A01A3A,5,1548205972000
1548205995640.6201171875,5,-18.5800000000,A01A3A,5,1548205972000
1548205995656.2500000000,5,-20.7500000000,A01A3A,5,1548205972000
1548205995671.8798828125,5,-23.3800000000,A01A3A,5,1548205972000
1548205995687.5000000000,5,-26.1800000000,A01A3A,5,1548205972000
1548205995703.1201171875,5,-28.6300000000,A01A3A,5,1548205972000
1548205995718.7500000000,5,-30.0200000000,A01A3A,5,1548205972000
1548205995734.3798828125,5,-29.6800000000,A01A3A,5,1548205972000
1548205995750.0000000000,5,-27.1800000000,A01A3A,5,1548205972000
1548205995765.6201171875,5,-22.4700000000,A01A3A,5,1548205972000
1548205995781.2500000000,5,-15.9700000000,A01A3A,5,1548205972000
1548205995796.8798828125,5,-8.3500000000,A01A3A,5,1548205972000
1548205995812.5000000000,5,-0.5000000000,A01A3A,5,1548205972000
1548205995828.1201171875,5,6.7900000000,A01A3A,5,1548205972000
1548205995843.7500000000,5,12.8800000000,A01A3A,5,1548205972000
1548205995859.3798828125,5,17.3800000000,A01A3A,5,1548205972000
1548205995875.0000000000,5,20.1000000000,A01A3A,5,1548205972000
1548205995890.6201171875,5,21.0900000000,A01A3A,5,1548205972000
1548205995906.2500000000,5,20.5300000000,A01A3A,5,1548205972000
1548205995921.8798828125,5,18.7700000000,A01A3A,5,1548205972000
1548205995937.5000000000,5,16.2800000000,A01A3A,5,1548205972000
1548205995953.1201171875,5,13.6300000000,A01A3A,5,1548205972000
1548205995968.7500000000,5,11.3800000000,A01A3A,5,1548205972000
1548205995984.3798828125,5,10.0000000000,A01A3A,5,1548205972000
1548205996000.0000000000,5,9.7000000000,A01A3A,5,1548205972000
1548205996015.6201171875,5,10.3800000000,A01A3A,5,1548205972000
1548205996031.2500000000,5,11.6500000000,A01A3A,5,1548205972000
1548205996046.8798828125,5,12.9500000000,A01A3A,5,1548205972000
1548205996062.5000000000,5,13.7600000000,A01A3A,5,1548205972000
1548205996078.1201171875,5,13.7900000000,A01A3A,5,1548205972000
1548205996093.7500000000,5,12.9900000000,A01A3A,5,1548205972000
1548205996109.3798828125,5,11.5600000000,A01A3A,5,1548205972000
1548205996125.0000000000,5,9.7400000000,A01A3A,5,1548205972000
1548205996140.6201171875,5,7.7200000000,A01A3A,5,1548205972000
1548205996156.2500000000,5,5.6900000000,A01A3A,5,1548205972000
1548205996171.8798828125,5,3.7300000000,A01A3A,5,1548205972000
1548205996187.5000000000,5,1.9800000000,A01A3A,5,1548205972000
1548205996203.1201171875,5,0.5400000000,A01A3A,5,1548205972000
1548205996218.7500000000,5,-0.5400000000,A01A3A,5,1548205972000
1548205996234.3798828125,5,-1.3900000000,A01A3A,5,1548205972000
1548205996250.0000000000,5,-2.2900000000,A01A3A,5,1548205972000
1548205996265.6201171875,5,-3.6200000000,A01A3A,5,1548205972000
1548205996281.2500000000,5,-5.7500000000,A01A3A,5,1548205972000
1548205996296.8798828125,5,-8.9000000000,A01A3A,5,1548205972000
1548205996312.5000000000,5,-13.0800000000,A01A3A,5,1548205972000
1548205996328.1201171875,5,-18.0500000000,A01A3A,5,1548205972000
1548205996343.7500000000,5,-23.4000000000,A01A3A,5,1548205972000
1548205996359.3798828125,5,-28.4600000000,A01A3A,5,1548205972000
1548205996375.0000000000,5,-32.4500000000,A01A3A,5,1548205972000
1548205996390.6201171875,5,-34.5000000000,A01A3A,5,1548205972000
1548205996406.2500000000,5,-33.9400000000,A01A3A,5,1548205972000
1548205996421.8798828125,5,-30.4600000000,A01A3A,5,1548205972000
1548205996437.5000000000,5,-24.3700000000,A01A3A,5,1548205972000
1548205996453.1201171875,5,-16.5000000000,A01A3A,5,1548205972000
1548205996468.7500000000,5,-8.0400000000,A01A3A,5,1548205972000
1548205996484.3798828125,5,-0.0900000000,A01A3A,5,1548205972000
1548205996500.0000000000,5,6.5500000000,A01A3A,5,1548205972000
1548205996515.6201171875,5,11.6100000000,A01A3A,5,1548205972000
1548205996531.2500000000,5,15.2200000000,A01A3A,5,1548205972000
1548205996546.8798828125,5,17.6600000000,A01A3A,5,1548205972000
1548205996562.5000000000,5,19.1800000000,A01A3A,5,1548205972000
1548205996578.1201171875,5,19.9300000000,A01A3A,5,1548205972000
1548205996593.7500000000,5,20.0100000000,A01A3A,5,1548205972000
1548205996609.3798828125,5,19.6000000000,A01A3A,5,1548205972000
1548205996625.0000000000,5,19.0000000000,A01A3A,5,1548205972000
1548205996640.6201171875,5,18.5800000000,A01A3A,5,1548205972000
1548205996656.2500000000,5,18.5500000000,A01A3A,5,1548205972000
1548205996671.8798828125,5,18.8800000000,A01A3A,5,1548205972000
1548205996687.5000000000,5,19.2500000000,A01A3A,5,1548205972000
1548205996703.1201171875,5,19.2100000000,A01A3A,5,1548205972000
1548205996718.7500000000,5,18.4000000000,A01A3A,5,1548205972000
1548205996734.3798828125,5,16.7600000000,A01A3A,5,1548205972000
1548205996750.0000000000,5,14.6300000000,A01A3A,5,1548205972000
1548205996765.6201171875,5,12.6300000000,A01A3A,5,1548205972000
1548205996781.2500000000,5,11.3800000000,A01A3A,5,1548205972000
1548205996796.8798828125,5,11.2400000000,A01A3A,5,1548205972000
1548205996812.5000000000,5,12.0600000000,A01A3A,5,1548205972000
1548205996828.1201171875,5,13.3000000000,A01A3A,5,1548205972000
1548205996843.7500000000,5,14.1500000000,A01A3A,5,1548205972000
1548205996859.3798828125,5,13.9500000000,A01A3A,5,1548205972000
1548205996875.0000000000,5,12.4100000000,A01A3A,5,1548205972000
1548205996890.6201171875,5,9.7000000000,A01A3A,5,1548205972000
1548205996906.2500000000,5,6.2900000000,A01A3A,5,1548205972000
1548205996921.8798828125,5,2.7100000000,A01A3A,5,1548205972000
1548205996937.5000000000,5,-0.7000000000,A01A3A,5,1548205972000
1548205996953.1201171875,5,-3.8100000000,A01A3A,5,1548205972000
1548205996968.7500000000,5,-6.7300000000,A01A3A,5,1548205972000
1548205996984.3798828125,5,-9.5800000000,A01A3A,5,1548205972000
1548205997000.0000000000,5,-12.4500000000,A01A3A,5,1548205972000
1548205997015.6201171875,5,-15.3900000000,A01A3A,5,1548205972000
1548205997031.2500000000,5,-18.4200000000,A01A3A,5,1548205972000
1548205997046.8798828125,5,-21.6200000000,A01A3A,5,1548205972000
1548205997062.5000000000,5,-24.9300000000,A01A3A,5,1548205972000
1548205997078.1201171875,5,-28.0600000000,A01A3A,5,1548205972000
1548205997093.7500000000,5,-30.3900000000,A01A3A,5,1548205972000
1548205997109.3798828125,5,-31.1300000000,A01A3A,5,1548205972000
1548205997125.0000000000,5,-29.5900000000,A01A3A,5,1548205972000
1548205997140.6201171875,5,-25.5200000000,A01A3A,5,1548205972000
1548205997156.2500000000,5,-19.2700000000,A01A3A,5,1548205972000
1548205997171.8798828125,5,-11.6700000000,A01A3A,5,1548205972000
1548205997187.5000000000,5,-3.7300000000,A01A3A,5,1548205972000
1548205997203.1201171875,5,3.7500000000,A01A3A,5,1548205972000
1548205997218.7500000000,5,10.2900000000,A01A3A,5,1548205972000
1548205997234.3798828125,5,15.7700000000,A01A3A,5,1548205972000
1548205997250.0000000000,5,20.1600000000,A01A3A,5,1548205972000
1548205997265.6201171875,5,23.4200000000,A01A3A,5,1548205972000
1548205997281.2500000000,5,25.3800000000,A01A3A,5,1548205972000
1548205997296.8798828125,5,25.9300000000,A01A3A,5,1548205972000
1548205997312.5000000000,5,25.1000000000,A01A3A,5,1548205972000
1548205997328.1201171875,5,23.2000000000,A01A3A,5,1548205972000
1548205997343.7500000000,5,20.7400000000,A01A3A,5,1548205972000
1548205997359.3798828125,5,18.3300000000,A01A3A,5,1548205972000
1548205997375.0000000000,5,16.4700000000,A01A3A,5,1548205972000
1548205997390.6201171875,5,15.4600000000,A01A3A,5,1548205972000
1548205997406.2500000000,5,15.3400000000,A01A3A,5,1548205972000
1548205997421.8798828125,5,15.9300000000,A01A3A,5,1548205972000
1548205997437.5000000000,5,16.9100000000,A01A3A,5,1548205972000
1548205997453.1201171875,5,17.9200000000,A01A3A,5,1548205972000
1548205997468.7500000000,5,18.6600000000,A01A3A,5,1548205972000
1548205997484.3798828125,5,18.9500000000,A01A3A,5,1548205972000
1548205997500.0000000000,5,18.7200000000,A01A3A,5,1548205972000
1548205997515.6201171875,5,17.9200000000,A01A3A,5,1548205972000
1548205997531.2500000000,5,16.4600000000,A01A3A,5,1548205972000
1548205997546.8798828125,5,14.2100000000,A01A3A,5,1548205972000
1548205997562.5000000000,5,11.1200000000,A01A3A,5,1548205972000
1548205997578.1201171875,5,7.2900000000,A01A3A,5,1548205972000
1548205997593.7500000000,5,3.0900000000,A01A3A,5,1548205972000
1548205997609.3798828125,5,-0.9600000000,A01A3A,5,1548205972000
1548205997625.0000000000,5,-4.3400000000,A01A3A,5,1548205972000
1548205997640.6201171875,5,-6.7400000000,A01A3A,5,1548205972000
1548205997656.2500000000,5,-8.2200000000,A01A3A,5,1548205972000
1548205997671.8798828125,5,-9.2200000000,A01A3A,5,1548205972000
1548205997687.5000000000,5,-10.4500000000,A01A3A,5,1548205972000
1548205997703.1201171875,5,-12.6700000000,A01A3A,5,1548205972000
1548205997718.7500000000,5,-16.4300000000,A01A3A,5,1548205972000
1548205997734.3798828125,5,-21.7800000000,A01A3A,5,1548205972000
1548205997750.0000000000,5,-28.1900000000,A01A3A,5,1548205972000
1548205997765.6201171875,5,-34.5400000000,A01A3A,5,1548205972000
1548205997781.2500000000,5,-39.3600000000,A01A3A,5,1548205972000
1548205997796.8798828125,5,-41.2600000000,A01A3A,5,1548205972000
1548205997812.5000000000,5,-39.3400000000,A01A3A,5,1548205972000
1548205997828.1201171875,5,-33.5200000000,A01A3A,5,1548205972000
1548205997843.7500000000,5,-24.6000000000,A01A3A,5,1548205972000
1548205997859.3798828125,5,-13.9900000000,A01A3A,5,1548205972000
1548205997875.0000000000,5,-3.2800000000,A01A3A,5,1548205972000
1548205997890.6201171875,5,6.2400000000,A01A3A,5,1548205972000
1548205997906.2500000000,5,13.8600000000,A01A3A,5,1548205972000
1548205997921.8798828125,5,19.3800000000,A01A3A,5,1548205972000
1548205997937.5000000000,5,22.9800000000,A01A3A,5,1548205972000
1548205997953.1201171875,5,24.9800000000,A01A3A,5,1548205972000
1548205997968.7500000000,5,25.6500000000,A01A3A,5,1548205972000
1548205997984.3798828125,5,25.2300000000,A01A3A,5,1548205972000
1548205998000.0000000000,5,24.0300000000,A01A3A,5,1548205972000
1548205998015.6201171875,5,22.5000000000,A01A3A,5,1548205972000
1548205998031.2500000000,5,21.1600000000,A01A3A,5,1548205972000
1548205998046.8798828125,5,20.4700000000,A01A3A,5,1548205972000
1548205998062.5000000000,5,20.6000000000,A01A3A,5,1548205972000
1548205998078.1201171875,5,21.3800000000,A01A3A,5,1548205972000
1548205998093.7500000000,5,22.3200000000,A01A3A,5,1548205972000
1548205998109.3798828125,5,22.8900000000,A01A3A,5,1548205972000
1548205998125.0000000000,5,22.7300000000,A01A3A,5,1548205972000
1548205998140.6201171875,5,21.8000000000,A01A3A,5,1548205972000
1548205998156.2500000000,5,20.3600000000,A01A3A,5,1548205972000
1548205998171.8798828125,5,18.8500000000,A01A3A,5,1548205972000
1548205998187.5000000000,5,17.6300000000,A01A3A,5,1548205972000
1548205998203.1201171875,5,16.8500000000,A01A3A,5,1548205972000
1548205998218.7500000000,5,16.3700000000,A01A3A,5,1548205972000
1548205998234.3798828125,5,15.8800000000,A01A3A,5,1548205972000
1548205998250.0000000000,5,14.9900000000,A01A3A,5,1548205972000
1548205998265.6201171875,5,13.4000000000,A01A3A,5,1548205972000
1548205998281.2500000000,5,11.0300000000,A01A3A,5,1548205972000
1548205998296.8798828125,5,7.9900000000,A01A3A,5,1548205972000
1548205998312.5000000000,5,4.5100000000,A01A3A,5,1548205972000
1548205998328.1201171875,5,0.8200000000,A01A3A,5,1548205972000
1548205998343.7500000000,5,-2.9100000000,A01A3A,5,1548205972000
1548205998359.3798828125,5,-6.6000000000,A01A3A,5,1548205972000
1548205998375.0000000000,5,-10.2200000000,A01A3A,5,1548205972000
1548205998390.6201171875,5,-13.7500000000,A01A3A,5,1548205972000
1548205998406.2500000000,5,-17.1700000000,A01A3A,5,1548205972000
1548205998421.8798828125,5,-20.5600000000,A01A3A,5,1548205972000
1548205998437.5000000000,5,-24.0400000000,A01A3A,5,1548205972000
1548205998453.1201171875,5,-27.7500000000,A01A3A,5,1548205972000
1548205998468.7500000000,5,-31.6400000000,A01A3A,5,1548205972000
1548205998484.3798828125,5,-35.2900000000,A01A3A,5,1548205972000
1548205998500.0000000000,5,-37.9100000000,A01A3A,5,1548205972000
1548205998515.6201171875,5,-38.4900000000,A01A3A,5,1548205972000
1548205998531.2500000000,5,-36.2600000000,A01A3A,5,1548205972000
1548205998546.8798828125,5,-30.9700000000,A01A3A,5,1548205972000
1548205998562.5000000000,5,-23.1100000000,A01A3A,5,1548205972000
1548205998578.1201171875,5,-13.7400000000,A01A3A,5,1548205972000
1548205998593.7500000000,5,-4.0300000000,A01A3A,5,1548205972000
1548205998609.3798828125,5,5.0600000000,A01A3A,5,1548205972000
1548205998625.0000000000,5,13.1500000000,A01A3A,5,1548205972000
1548205998640.6201171875,5,20.2800000000,A01A3A,5,1548205972000
1548205998656.2500000000,5,26.6600000000,A01A3A,5,1548205972000
1548205998671.8798828125,5,32.3300000000,A01A3A,5,1548205972000
1548205998687.5000000000,5,37.0400000000,A01A3A,5,1548205972000
1548205998703.1201171875,5,40.3500000000,A01A3A,5,1548205972000
1548205998718.7500000000,5,41.8600000000,A01A3A,5,1548205972000
1548205998734.3798828125,5,41.5600000000,A01A3A,5,1548205972000
1548205998750.0000000000,5,39.8400000000,A01A3A,5,1548205972000
1548205998765.6201171875,5,37.3800000000,A01A3A,5,1548205972000
1548205998781.2500000000,5,34.8700000000,A01A3A,5,1548205972000
1548205998796.8798828125,5,32.8000000000,A01A3A,5,1548205972000
1548205998812.5000000000,5,31.3500000000,A01A3A,5,1548205972000
1548205998828.1201171875,5,30.4600000000,A01A3A,5,1548205972000
1548205998843.7500000000,5,29.9400000000,A01A3A,5,1548205972000
1548205998859.3798828125,5,29.5500000000,A01A3A,5,1548205972000
1548205998875.0000000000,5,29.0800000000,A01A3A,5,1548205972000
1548205998890.6201171875,5,28.2500000000,A01A3A,5,1548205972000
1548205998906.2500000000,5,26.7700000000,A01A3A,5,1548205972000
1548205998921.8798828125,5,24.4500000000,A01A3A,5,1548205972000
1548205998937.5000000000,5,21.2800000000,A01A3A,5,1548205972000
1548205998953.1201171875,5,17.4800000000,A01A3A,5,1548205972000
1548205998968.7500000000,5,13.4400000000,A01A3A,5,1548205972000
1548205998984.3798828125,5,9.5000000000,A01A3A,5,1548205972000
1548205999000.0000000000,5,5.8600000000,A01A3A,5,1548205972000
1548205999015.6201171875,5,2.5400000000,A01A3A,5,1548205972000
1548205999031.2500000000,5,-0.5600000000,A01A3A,5,1548205972000
1548205999046.8798828125,5,-3.5300000000,A01A3A,5,1548205972000
1548205999062.5000000000,5,-6.3600000000,A01A3A,5,1548205972000
1548205999078.1201171875,5,-8.9200000000,A01A3A,5,1548205972000
1548205999093.7500000000,5,-11.1400000000,A01A3A,5,1548205972000
1548205999109.3798828125,5,-13.0400000000,A01A3A,5,1548205972000
1548205999125.0000000000,5,-14.8200000000,A01A3A,5,1548205972000
1548205999140.6201171875,5,-16.7800000000,A01A3A,5,1548205972000
1548205999156.2500000000,5,-19.2400000000,A01A3A,5,1548205972000
1548205999171.8798828125,5,-22.3900000000,A01A3A,5,1548205972000
1548205999187.5000000000,5,-26.2800000000,A01A3A,5,1548205972000
1548205999203.1201171875,5,-30.8000000000,A01A3A,5,1548205972000
1548205999218.7500000000,5,-35.6900000000,A01A3A,5,1548205972000
1548205999234.3798828125,5,-40.4900000000,A01A3A,5,1548205972000
1548205999250.0000000000,5,-44.5800000000,A01A3A,5,1548205972000
1548205999265.6201171875,5,-47.1800000000,A01A3A,5,1548205972000
1548205999281.2500000000,5,-47.4900000000,A01A3A,5,1548205972000
1548205999296.8798828125,5,-44.9800000000,A01A3A,5,1548205972000
1548205999312.5000000000,5,-39.6000000000,A01A3A,5,1548205972000
1548205999328.1201171875,5,-31.8400000000,A01A3A,5,1548205972000
1548205999343.7500000000,5,-22.7300000000,A01A3A,5,1548205972000
1548205999359.3798828125,5,-13.4500000000,A01A3A,5,1548205972000
1548205999375.0000000000,5,-4.9900000000,A01A3A,5,1548205972000
1548205999390.6201171875,5,2.1500000000,A01A3A,5,1548205972000
1548205999406.2500000000,5,7.9700000000,A01A3A,5,1548205972000
1548205999421.8798828125,5,12.7900000000,A01A3A,5,1548205972000
1548205999437.5000000000,5,16.9900000000,A01A3A,5,1548205972000
1548205999453.1201171875,5,20.7600000000,A01A3A,5,1548205972000
1548205999468.7500000000,5,24.1100000000,A01A3A,5,1548205972000
1548205999484.3798828125,5,26.8800000000,A01A3A,5,1548205972000
1548205999500.0000000000,5,28.9200000000,A01A3A,5,1548205972000
1548205999515.6201171875,5,30.1200000000,A01A3A,5,1548205972000
1548205999531.2500000000,5,30.5200000000,A01A3A,5,1548205972000
1548205999546.8798828125,5,30.2100000000,A01A3A,5,1548205972000
1548205999562.5000000000,5,29.4200000000,A01A3A,5,1548205972000
1548205999578.1201171875,5,28.4400000000,A01A3A,5,1548205972000
1548205999593.7500000000,5,27.6200000000,A01A3A,5,1548205972000
1548205999609.3798828125,5,27.2600000000,A01A3A,5,1548205972000
1548205999625.0000000000,5,27.4900000000,A01A3A,5,1548205972000
1548205999640.6201171875,5,28.1900000000,A01A3A,5,1548205972000
1548205999656.2500000000,5,29.0600000000,A01A3A,5,1548205972000
1548205999671.8798828125,5,29.6800000000,A01A3A,5,1548205972000
1548205999687.5000000000,5,29.7000000000,A01A3A,5,1548205972000
1548205999703.1201171875,5,28.9700000000,A01A3A,5,1548205972000
1548205999718.7500000000,5,27.5600000000,A01A3A,5,1548205972000
1548205999734.3798828125,5,25.6400000000,A01A3A,5,1548205972000
1548205999750.0000000000,5,23.4600000000,A01A3A,5,1548205972000
1548205999765.6201171875,5,21.1400000000,A01A3A,5,1548205972000
1548205999781.2500000000,5,18.6700000000,A01A3A,5,1548205972000
1548205999796.8798828125,5,15.9000000000,A01A3A,5,1548205972000
1548205999812.5000000000,5,12.7000000000,A01A3A,5,1548205972000
1548205999828.1201171875,5,9.0400000000,A01A3A,5,1548205972000
1548205999843.7500000000,5,5.0500000000,A01A3A,5,1548205972000
1548205999859.3798828125,5,1.0700000000,A01A3A,5,1548205972000
1548205999875.0000000000,5,-2.6000000000,A01A3A,5,1548205972000
1548205999890.6201171875,5,-5.7000000000,A01A3A,5,1548205972000
1548205999906.2500000000,5,-8.2500000000,A01A3A,5,1548205972000
1548205999921.8798828125,5,-10.5200000000,A01A3A,5,1548205972000
1548205999937.5000000000,5,-12.9500000000,A01A3A,5,1548205972000
1548205999953.1201171875,5,-15.9900000000,A01A3A,5,1548205972000
1548205999968.7500000000,5,-19.9800000000,A01A3A,5,1548205972000
1548205999984.3798828125,5,-25.0100000000,A01A3A,5,1548205972000
1548206000000.0000000000,5,-30.8300000000,A01A3A,5,1548205972000
1548206000015.6201171875,5,-36.8400000000,A01A3A,5,1548205972000
1548206000031.2500000000,5,-42.1500000000,A01A3A,5,1548205972000
1548206000046.8798828125,5,-45.7400000000,A01A3A,5,1548205972000
1548206000062.5000000000,5,-46.6900000000,A01A3A,5,1548205972000
1548206000078.1201171875,5,-44.4800000000,A01A3A,5,1548205972000
1548206000093.7500000000,5,-39.1700000000,A01A3A,5,1548205972000
1548206000109.3798828125,5,-31.4300000000,A01A3A,5,1548205972000
1548206000125.0000000000,5,-22.3200000000,A01A3A,5,1548205972000
1548206000140.6201171875,5,-13.0000000000,A01A3A,5,1548205972000
1548206000156.2500000000,5,-4.5200000000,A01A3A,5,1548205972000
1548206000171.8798828125,5,2.4800000000,A01A3A,5,1548205972000
1548206000187.5000000000,5,7.7600000000,A01A3A,5,1548205972000
1548206000203.1201171875,5,11.4200000000,A01A3A,5,1548205972000
1548206000218.7500000000,5,13.8100000000,A01A3A,5,1548205972000
1548206000234.3798828125,5,15.4000000000,A01A3A,5,1548205972000
1548206000250.0000000000,5,16.5900000000,A01A3A,5,1548205972000
1548206000265.6201171875,5,17.6700000000,A01A3A,5,1548205972000
1548206000281.2500000000,5,18.7900000000,A01A3A,5,1548205972000
1548206000296.8798828125,5,19.8800000000,A01A3A,5,1548205972000
1548206000312.5000000000,5,20.8200000000,A01A3A,5,1548205972000
1548206000328.1201171875,5,21.4700000000,A01A3A,5,1548205972000
1548206000343.7500000000,5,21.7700000000,A01A3A,5,1548205972000
1548206000359.3798828125,5,21.7200000000,A01A3A,5,1548205972000
1548206000375.0000000000,5,21.4100000000,A01A3A,5,1548205972000
1548206000390.6201171875,5,20.9100000000,A01A3A,5,1548205972000
1548206000406.2500000000,5,20.2900000000,A01A3A,5,1548205972000
1548206000421.8798828125,5,19.6000000000,A01A3A,5,1548205972000
1548206000437.5000000000,5,18.9800000000,A01A3A,5,1548205972000
1548206000453.1201171875,5,18.6400000000,A01A3A,5,1548205972000
1548206000468.7500000000,5,18.7700000000,A01A3A,5,1548205972000
1548206000484.3798828125,5,19.3500000000,A01A3A,5,1548205972000
1548206000500.0000000000,5,20.0400000000,A01A3A,5,1548205972000
1548206000515.6201171875,5,20.2000000000,A01A3A,5,1548205972000
1548206000531.2500000000,5,19.1200000000,A01A3A,5,1548205972000
1548206000546.8798828125,5,16.3500000000,A01A3A,5,1548205972000
1548206000562.5000000000,5,11.9100000000,A01A3A,5,1548205972000
1548206000578.1201171875,5,6.3900000000,A01A3A,5,1548205972000
1548206000593.7500000000,5,0.7000000000,A01A3A,5,1548205972000
1548206000609.3798828125,5,-4.2400000000,A01A3A,5,1548205972000
1548206000625.0000000000,5,-7.8300000000,A01A3A,5,1548205972000
1548206000640.6201171875,5,-9.9700000000,A01A3A,5,1548205972000
1548206000656.2500000000,5,-11.1100000000,A01A3A,5,1548205972000
1548206000671.8798828125,5,-12.0700000000,A01A3A,5,1548205972000
1548206000687.5000000000,5,-13.7400000000,A01A3A,5,1548205972000
1548206000703.1201171875,5,-16.8800000000,A01A3A,5,1548205972000
1548206000718.7500000000,5,-21.7800000000,A01A3A,5,1548205972000
1548206000734.3798828125,5,-28.1900000000,A01A3A,5,1548205972000
1548206000750.0000000000,5,-35.2000000000,A01A3A,5,1548205972000
1548206000765.6201171875,5,-41.5100000000,A01A3A,5,1548205972000
1548206000781.2500000000,5,-45.7200000000,A01A3A,5,1548205972000
1548206000796.8798828125,5,-46.7400000000,A01A3A,5,1548205972000
1548206000812.5000000000,5,-44.1100000000,A01A3A,5,1548205972000
1548206000828.1201171875,5,-38.0900000000,A01A3A,5,1548205972000
1548206000843.7500000000,5,-29.5800000000,A01A3A,5,1548205972000
1548206000859.3798828125,5,-19.7800000000,A01A3A,5,1548205972000
1548206000875.0000000000,5,-9.9300000000,A01A3A,5,1548205972000
1548206000890.6201171875,5,-1.1200000000,A01A3A,5,1548205972000
1548206000906.2500000000,5,5.9800000000,A01A3A,5,1548205972000
1548206000921.8798828125,5,11.0600000000,A01A3A,5,1548205972000
1548206000937.5000000000,5,14.2400000000,A01A3A,5,1548205972000
1548206000953.1201171875,5,15.9000000000,A01A3A,5,1548205972000
1548206000968.7500000000,5,16.5900000000,A01A3A,5,1548205972000
1548206000984.3798828125,5,16.8200000000,A01A3A,5,1548205972000
1548206001000.0000000000,5,16.9500000000,A01A3A,5,1548205972000
1548206001015.6201171875,5,17.2000000000,A01A3A,5,1548205972000
1548206001031.2500000000,5,17.6300000000,A01A3A,5,1548205972000
1548206001046.8798828125,5,18.2200000000,A01A3A,5,1548205972000
1548206001062.5000000000,5,18.9700000000,A01A3A,5,1548205972000
1548206001078.1201171875,5,19.8700000000,A01A3A,5,1548205972000
1548206001093.7500000000,5,20.8200000000,A01A3A,5,1548205972000
1548206001109.3798828125,5,21.6700000000,A01A3A,5,1548205972000
1548206001125.0000000000,5,22.1900000000,A01A3A,5,1548205972000
1548206001140.6201171875,5,22.2200000000,A01A3A,5,1548205972000
1548206001156.2500000000,5,21.7000000000,A01A3A,5,1548205972000
1548206001171.8798828125,5,20.7900000000,A01A3A,5,1548205972000
1548206001187.5000000000,5,19.7400000000,A01A3A,5,1548205972000
1548206001203.1201171875,5,18.8400000000,A01A3A,5,1548205972000
