timestamp,pid,value,device_serial,device_number,entry_time
1552894607000.0000000000,28,0E-10,A01525,1,1552894607000
1552894607015.6201171875,28,0E-10,A01525,1,1552894607000
1552894607031.2500000000,28,0E-10,A01525,1,1552894607000
1552894607046.8798828125,28,0E-10,A01525,1,1552894607000
1552894607062.5000000000,28,0E-10,A01525,1,1552894607000
1552894607078.1201171875,28,0E-10,A01525,1,1552894607000
1552894607093.7500000000,28,0E-10,A01525,1,1552894607000
1552894607109.3798828125,28,0E-10,A01525,1,1552894607000
1552894607125.0000000000,28,0E-10,A01525,1,1552894607000
1552894607140.6201171875,28,0E-10,A01525,1,1552894607000
1552894607156.2500000000,28,0E-10,A01525,1,1552894607000
1552894607171.8798828125,28,0.0100000000,A01525,1,1552894607000
1552894607187.5000000000,28,0.0100000000,A01525,1,1552894607000
1552894607203.1201171875,28,0E-10,A01525,1,1552894607000
1552894607218.7500000000,28,-0.0300000000,A01525,1,1552894607000
1552894607234.3798828125,28,-0.0500000000,A01525,1,1552894607000
1552894607250.0000000000,28,-0.0500000000,A01525,1,1552894607000
1552894607265.6201171875,28,0E-10,A01525,1,1552894607000
1552894607281.2500000000,28,0.1300000000,A01525,1,1552894607000
1552894607296.8798828125,28,0.3600000000,A01525,1,1552894607000
1552894607312.5000000000,28,0.6600000000,A01525,1,1552894607000
1552894607328.1201171875,28,1.0100000000,A01525,1,1552894607000
1552894607343.7500000000,28,1.3700000000,A01525,1,1552894607000
1552894607359.3798828125,28,1.7200000000,A01525,1,1552894607000
1552894607375.0000000000,28,2.0600000000,A01525,1,1552894607000
1552894607390.6201171875,28,2.4000000000,A01525,1,1552894607000
1552894607406.2500000000,28,2.7900000000,A01525,1,1552894607000
1552894607421.8798828125,28,3.2400000000,A01525,1,1552894607000
1552894607437.5000000000,28,3.8000000000,A01525,1,1552894607000
1552894607453.1201171875,28,4.4200000000,A01525,1,1552894607000
1552894607468.7500000000,28,5.0600000000,A01525,1,1552894607000
1552894607484.3798828125,28,5.6600000000,A01525,1,1552894607000
1552894607500.0000000000,28,6.2000000000,A01525,1,1552894607000
1552894607515.6201171875,28,6.6800000000,A01525,1,1552894607000
1552894607531.2500000000,28,7.1500000000,A01525,1,1552894607000
1552894607546.8798828125,28,7.6800000000,A01525,1,1552894607000
1552894607562.5000000000,28,8.3100000000,A01525,1,1552894607000
1552894607578.1201171875,28,9.1400000000,A01525,1,1552894607000
1552894607593.7500000000,28,10.0900000000,A01525,1,1552894607000
1552894607609.3798828125,28,11.0400000000,A01525,1,1552894607000
1552894607625.0000000000,28,11.8800000000,A01525,1,1552894607000
1552894607640.6201171875,28,12.5600000000,A01525,1,1552894607000
1552894607656.2500000000,28,13.1400000000,A01525,1,1552894607000
1552894607671.8798828125,28,13.7600000000,A01525,1,1552894607000
1552894607687.5000000000,28,14.6500000000,A01525,1,1552894607000
1552894607703.1201171875,28,15.9600000000,A01525,1,1552894607000
1552894607718.7500000000,28,17.9100000000,A01525,1,1552894607000
1552894607734.3798828125,28,20.3200000000,A01525,1,1552894607000
1552894607750.0000000000,28,22.9000000000,A01525,1,1552894607000
1552894607765.6201171875,28,25.3800000000,A01525,1,1552894607000
1552894607781.2500000000,28,27.5800000000,A01525,1,1552894607000
1552894607796.8798828125,28,29.5700000000,A01525,1,1552894607000
1552894607812.5000000000,28,31.6800000000,A01525,1,1552894607000
1552894607828.1201171875,28,34.3200000000,A01525,1,1552894607000
1552894607843.7500000000,28,37.8100000000,A01525,1,1552894607000
1552894607859.3798828125,28,42.5400000000,A01525,1,1552894607000
1552894607875.0000000000,28,48.1500000000,A01525,1,1552894607000
1552894607890.6201171875,28,54.1000000000,A01525,1,1552894607000
1552894607906.2500000000,28,59.8300000000,A01525,1,1552894607000
1552894607921.8798828125,28,64.9700000000,A01525,1,1552894607000
1552894607937.5000000000,28,69.5800000000,A01525,1,1552894607000
1552894607953.1201171875,28,74.1400000000,A01525,1,1552894607000
1552894607968.7500000000,28,79.3400000000,A01525,1,1552894607000
1552894607984.3798828125,28,85.7100000000,A01525,1,1552894607000
1552894608000.0000000000,28,93.7600000000,A01525,1,1552894607000
1552894608015.6201171875,28,103.0000000000,A01525,1,1552894607000
1552894608031.2500000000,28,112.6200000000,A01525,1,1552894607000
1552894608046.8798828125,28,121.7300000000,A01525,1,1552894607000
1552894608062.5000000000,28,129.7700000000,A01525,1,1552894607000
1552894608078.1201171875,28,136.7500000000,A01525,1,1552894607000
1552894608093.7500000000,28,143.3000000000,A01525,1,1552894607000
1552894608109.3798828125,28,150.7500000000,A01525,1,1552894607000
1552894608125.0000000000,28,157.7700000000,A01525,1,1552894607000
1552894608140.6201171875,28,166.6400000000,A01525,1,1552894607000
1552894608156.2500000000,28,177.9500000000,A01525,1,1552894607000
1552894608171.8798828125,28,191.7900000000,A01525,1,1552894607000
1552894608187.5000000000,28,206.9700000000,A01525,1,1552894607000
1552894608203.1201171875,28,220.5700000000,A01525,1,1552894607000
1552894608218.7500000000,28,228.2500000000,A01525,1,1552894607000
1552894608234.3798828125,28,225.3600000000,A01525,1,1552894607000
1552894608250.0000000000,28,208.5300000000,A01525,1,1552894607000
1552894608265.6201171875,28,176.8700000000,A01525,1,1552894607000
1552894608281.2500000000,28,132.7600000000,A01525,1,1552894607000
1552894608296.8798828125,28,80.0500000000,A01525,1,1552894607000
1552894608312.5000000000,28,23.0700000000,A01525,1,1552894607000
1552894608328.1201171875,28,-34.9400000000,A01525,1,1552894607000
1552894608343.7500000000,28,-92.4400000000,A01525,1,1552894607000
1552894608359.3798828125,28,-149.1600000000,A01525,1,1552894607000
1552894608375.0000000000,28,-205.2300000000,A01525,1,1552894607000
1552894608390.6201171875,28,-260.3700000000,A01525,1,1552894607000
1552894608406.2500000000,28,-313.7400000000,A01525,1,1552894607000
1552894608421.8798828125,28,-363.8700000000,A01525,1,1552894607000
1552894608437.5000000000,28,-409.8300000000,A01525,1,1552894607000
1552894608453.1201171875,28,-450.9100000000,A01525,1,1552894607000
1552894608468.7500000000,28,-486.5000000000,A01525,1,1552894607000
1552894608484.3798828125,28,-515.7400000000,A01525,1,1552894607000
1552894608500.0000000000,28,-537.2300000000,A01525,1,1552894607000
1552894608515.6201171875,28,-549.2200000000,A01525,1,1552894607000
1552894608531.2500000000,28,-549.9600000000,A01525,1,1552894607000
1552894608546.8798828125,28,-538.3700000000,A01525,1,1552894607000
1552894608562.5000000000,28,-514.2100000000,A01525,1,1552894607000
1552894608578.1201171875,28,-478.6700000000,A01525,1,1552894607000
1552894608593.7500000000,28,-433.8800000000,A01525,1,1552894607000
1552894608609.3798828125,28,-382.4500000000,A01525,1,1552894607000
1552894608625.0000000000,28,-327.0200000000,A01525,1,1552894607000
1552894608640.6201171875,28,-269.8400000000,A01525,1,1552894607000
1552894608656.2500000000,28,-212.6300000000,A01525,1,1552894607000
1552894608671.8798828125,28,-156.6600000000,A01525,1,1552894607000
1552894608687.5000000000,28,-102.9500000000,A01525,1,1552894607000
1552894608703.1201171875,28,-52.3700000000,A01525,1,1552894607000
1552894608718.7500000000,28,-5.9000000000,A01525,1,1552894607000
1552894608734.3798828125,28,35.5800000000,A01525,1,1552894607000
1552894608750.0000000000,28,71.4300000000,A01525,1,1552894607000
1552894608765.6201171875,28,101.3500000000,A01525,1,1552894607000
1552894608781.2500000000,28,125.5000000000,A01525,1,1552894607000
1552894608796.8798828125,28,144.3800000000,A01525,1,1552894607000
1552894608812.5000000000,28,158.6900000000,A01525,1,1552894607000
1552894608828.1201171875,28,169.1500000000,A01525,1,1552894607000
1552894608843.7500000000,28,176.3700000000,A01525,1,1552894607000
1552894608859.3798828125,28,180.7500000000,A01525,1,1552894607000
1552894608875.0000000000,28,182.5700000000,A01525,1,1552894607000
1552894608890.6201171875,28,182.0700000000,A01525,1,1552894607000
1552894608906.2500000000,28,179.5100000000,A01525,1,1552894607000
1552894608921.8798828125,28,175.2300000000,A01525,1,1552894607000
1552894608937.5000000000,28,169.6500000000,A01525,1,1552894607000
1552894608953.1201171875,28,163.1800000000,A01525,1,1552894607000
1552894608968.7500000000,28,156.1500000000,A01525,1,1552894607000
1552894608984.3798828125,28,148.8100000000,A01525,1,1552894607000
1552894609000.0000000000,28,141.3000000000,A01525,1,1552894607000
1552894609015.6201171875,28,133.6900000000,A01525,1,1552894607000
1552894609031.2500000000,28,126.0200000000,A01525,1,1552894607000
1552894609046.8798828125,28,118.3300000000,A01525,1,1552894607000
1552894609062.5000000000,28,110.6900000000,A01525,1,1552894607000
1552894609078.1201171875,28,103.1600000000,A01525,1,1552894607000
1552894609093.7500000000,28,95.8000000000,A01525,1,1552894607000
1552894609109.3798828125,28,88.6800000000,A01525,1,1552894607000
1552894609125.0000000000,28,81.8300000000,A01525,1,1552894607000
1552894609140.6201171875,28,75.2500000000,A01525,1,1552894607000
1552894609156.2500000000,28,68.9500000000,A01525,1,1552894607000
1552894609171.8798828125,28,62.9500000000,A01525,1,1552894607000
1552894609187.5000000000,28,57.2500000000,A01525,1,1552894607000
1552894609203.1201171875,28,51.8600000000,A01525,1,1552894607000
1552894609218.7500000000,28,46.7800000000,A01525,1,1552894607000
1552894609234.3798828125,28,42.0300000000,A01525,1,1552894607000
1552894609250.0000000000,28,37.5900000000,A01525,1,1552894607000
1552894609265.6201171875,28,33.4500000000,A01525,1,1552894607000
1552894609281.2500000000,28,29.6100000000,A01525,1,1552894607000
1552894609296.8798828125,28,26.0700000000,A01525,1,1552894607000
1552894609312.5000000000,28,22.8100000000,A01525,1,1552894607000
1552894609328.1201171875,28,19.8300000000,A01525,1,1552894607000
1552894609343.7500000000,28,17.1100000000,A01525,1,1552894607000
1552894609359.3798828125,28,14.6700000000,A01525,1,1552894607000
1552894609375.0000000000,28,12.4800000000,A01525,1,1552894607000
1552894609390.6201171875,28,10.5400000000,A01525,1,1552894607000
1552894609406.2500000000,28,8.8300000000,A01525,1,1552894607000
1552894609421.8798828125,28,7.3500000000,A01525,1,1552894607000
1552894609437.5000000000,28,6.0700000000,A01525,1,1552894607000
1552894609453.1201171875,28,4.9700000000,A01525,1,1552894607000
1552894609468.7500000000,28,4.0500000000,A01525,1,1552894607000
1552894609484.3798828125,28,3.2700000000,A01525,1,1552894607000
1552894609500.0000000000,28,2.6200000000,A01525,1,1552894607000
1552894609515.6201171875,28,2.0900000000,A01525,1,1552894607000
1552894609531.2500000000,28,1.6500000000,A01525,1,1552894607000
1552894609546.8798828125,28,1.3000000000,A01525,1,1552894607000
1552894609562.5000000000,28,1.0100000000,A01525,1,1552894607000
1552894609578.1201171875,28,0.7900000000,A01525,1,1552894607000
1552894609593.7500000000,28,0.6100000000,A01525,1,1552894607000
1552894609609.3798828125,28,0.4800000000,A01525,1,1552894607000
1552894609625.0000000000,28,0.3700000000,A01525,1,1552894607000
1552894609640.6201171875,28,0.2900000000,A01525,1,1552894607000
1552894609656.2500000000,28,0.2400000000,A01525,1,1552894607000
1552894609671.8798828125,28,0.2000000000,A01525,1,1552894607000
1552894609687.5000000000,28,0.1700000000,A01525,1,1552894607000
1552894609703.1201171875,28,0.1600000000,A01525,1,1552894607000
1552894609718.7500000000,28,0.1600000000,A01525,1,1552894607000
1552894609734.3798828125,28,0.1700000000,A01525,1,1552894607000
1552894609750.0000000000,28,0.1900000000,A01525,1,1552894607000
1552894609765.6201171875,28,0.2200000000,A01525,1,1552894607000
1552894609781.2500000000,28,0.2500000000,A01525,1,1552894607000
1552894609796.8798828125,28,0.2800000000,A01525,1,1552894607000
1552894609812.5000000000,28,0.3200000000,A01525,1,1552894607000
1552894609828.1201171875,28,0.3700000000,A01525,1,1552894607000
1552894609843.7500000000,28,0.4100000000,A01525,1,1552894607000
1552894609859.3798828125,28,0.4600000000,A01525,1,1552894607000
1552894609875.0000000000,28,0.5100000000,A01525,1,1552894607000
1552894609890.6201171875,28,0.5600000000,A01525,1,1552894607000
1552894609906.2500000000,28,0.6100000000,A01525,1,1552894607000
1552894609921.8798828125,28,0.6600000000,A01525,1,1552894607000
1552894609937.5000000000,28,0.7200000000,A01525,1,1552894607000
1552894609953.1201171875,28,0.7900000000,A01525,1,1552894607000
1552894609968.7500000000,28,0.8500000000,A01525,1,1552894607000
1552894609984.3798828125,28,0.9200000000,A01525,1,1552894607000
1552894610000.0000000000,28,1.0000000000,A01525,1,1552894607000
1552894610015.6201171875,28,1.0900000000,A01525,1,1552894607000
1552894610031.2500000000,28,1.1800000000,A01525,1,1552894607000
1552894610046.8798828125,28,1.2900000000,A01525,1,1552894607000
1552894610062.5000000000,28,1.4100000000,A01525,1,1552894607000
1552894610078.1201171875,28,1.5400000000,A01525,1,1552894607000
1552894610093.7500000000,28,1.6900000000,A01525,1,1552894607000
1552894610109.3798828125,28,1.8600000000,A01525,1,1552894607000
1552894610125.0000000000,28,2.0500000000,A01525,1,1552894607000
1552894610140.6201171875,28,2.2700000000,A01525,1,1552894607000
1552894610156.2500000000,28,2.5000000000,A01525,1,1552894607000
1552894610171.8798828125,28,2.7600000000,A01525,1,1552894607000
1552894610187.5000000000,28,3.0500000000,A01525,1,1552894607000
1552894610203.1201171875,28,3.3700000000,A01525,1,1552894607000
1552894610218.7500000000,28,3.7100000000,A01525,1,1552894607000
1552894610234.3798828125,28,4.1000000000,A01525,1,1552894607000
1552894610250.0000000000,28,4.5100000000,A01525,1,1552894607000
1552894610265.6201171875,28,4.9600000000,A01525,1,1552894607000
1552894610281.2500000000,28,5.4400000000,A01525,1,1552894607000
1552894610296.8798828125,28,5.9600000000,A01525,1,1552894607000
1552894610312.5000000000,28,6.5300000000,A01525,1,1552894607000
1552894610328.1201171875,28,7.1300000000,A01525,1,1552894607000
1552894610343.7500000000,28,7.7800000000,A01525,1,1552894607000
1552894610359.3798828125,28,8.4700000000,A01525,1,1552894607000
1552894610375.0000000000,28,9.2000000000,A01525,1,1552894607000
1552894610390.6201171875,28,9.9900000000,A01525,1,1552894607000
1552894610406.2500000000,28,10.8200000000,A01525,1,1552894607000
1552894610421.8798828125,28,11.6900000000,A01525,1,1552894607000
1552894610437.5000000000,28,12.6100000000,A01525,1,1552894607000
1552894610453.1201171875,28,13.5800000000,A01525,1,1552894607000
1552894610468.7500000000,28,14.6100000000,A01525,1,1552894607000
1552894610484.3798828125,28,15.7000000000,A01525,1,1552894607000
1552894610500.0000000000,28,16.8600000000,A01525,1,1552894607000
1552894610515.6201171875,28,18.0700000000,A01525,1,1552894607000
1552894610531.2500000000,28,19.3500000000,A01525,1,1552894607000
1552894610546.8798828125,28,20.6400000000,A01525,1,1552894607000
1552894610562.5000000000,28,21.9100000000,A01525,1,1552894607000
1552894610578.1201171875,28,23.1000000000,A01525,1,1552894607000
1552894610593.7500000000,28,24.1100000000,A01525,1,1552894607000
1552894610609.3798828125,28,24.8400000000,A01525,1,1552894607000
1552894610625.0000000000,28,25.1700000000,A01525,1,1552894607000
1552894610640.6201171875,28,24.9900000000,A01525,1,1552894607000
1552894610656.2500000000,28,24.2000000000,A01525,1,1552894607000
1552894610671.8798828125,28,22.7300000000,A01525,1,1552894607000
1552894610687.5000000000,28,20.5500000000,A01525,1,1552894607000
1552894610703.1201171875,28,17.6900000000,A01525,1,1552894607000
1552894610718.7500000000,28,14.2200000000,A01525,1,1552894607000
1552894610734.3798828125,28,10.2200000000,A01525,1,1552894607000
1552894610750.0000000000,28,5.8900000000,A01525,1,1552894607000
1552894610765.6201171875,28,1.4100000000,A01525,1,1552894607000
1552894610781.2500000000,28,-3.0400000000,A01525,1,1552894607000
1552894610796.8798828125,28,-7.2600000000,A01525,1,1552894607000
1552894610812.5000000000,28,-11.0800000000,A01525,1,1552894607000
1552894610828.1201171875,28,-14.3600000000,A01525,1,1552894607000
1552894610843.7500000000,28,-16.9900000000,A01525,1,1552894607000
1552894610859.3798828125,28,-18.9100000000,A01525,1,1552894607000
1552894610875.0000000000,28,-20.1000000000,A01525,1,1552894607000
1552894610890.6201171875,28,-20.5500000000,A01525,1,1552894607000
1552894610906.2500000000,28,-20.3500000000,A01525,1,1552894607000
1552894610921.8798828125,28,-19.5900000000,A01525,1,1552894607000
1552894610937.5000000000,28,-18.4000000000,A01525,1,1552894607000
1552894610953.1201171875,28,-16.8800000000,A01525,1,1552894607000
1552894610968.7500000000,28,-15.1400000000,A01525,1,1552894607000
1552894610984.3798828125,28,-13.2500000000,A01525,1,1552894607000
1552894611000.0000000000,28,-11.2400000000,A01525,1,1552894607000
1552894611015.6201171875,28,-9.1700000000,A01525,1,1552894607000
1552894611031.2500000000,28,-7.0400000000,A01525,1,1552894607000
1552894611046.8798828125,28,-4.9400000000,A01525,1,1552894607000
1552894611062.5000000000,28,-2.9800000000,A01525,1,1552894607000
1552894611078.1201171875,28,-1.2200000000,A01525,1,1552894607000
1552894611093.7500000000,28,0.3100000000,A01525,1,1552894607000
1552894611109.3798828125,28,1.6200000000,A01525,1,1552894607000
1552894611125.0000000000,28,2.7900000000,A01525,1,1552894607000
1552894611140.6201171875,28,3.9300000000,A01525,1,1552894607000
1552894611156.2500000000,28,5.2100000000,A01525,1,1552894607000
1552894611171.8798828125,28,6.8100000000,A01525,1,1552894607000
1552894611187.5000000000,28,8.6800000000,A01525,1,1552894607000
1552894611203.1201171875,28,10.7700000000,A01525,1,1552894607000
1552894611218.7500000000,28,13.0000000000,A01525,1,1552894607000
1552894611234.3798828125,28,15.3300000000,A01525,1,1552894607000
1552894611250.0000000000,28,17.7100000000,A01525,1,1552894607000
1552894611265.6201171875,28,20.2000000000,A01525,1,1552894607000
1552894611281.2500000000,28,22.9200000000,A01525,1,1552894607000
1552894611296.8798828125,28,26.0200000000,A01525,1,1552894607000
1552894611312.5000000000,28,29.6500000000,A01525,1,1552894607000
1552894611328.1201171875,28,33.5000000000,A01525,1,1552894607000
1552894611343.7500000000,28,37.3200000000,A01525,1,1552894607000
1552894611359.3798828125,28,40.7800000000,A01525,1,1552894607000
1552894611375.0000000000,28,43.7000000000,A01525,1,1552894607000
1552894611390.6201171875,28,46.0200000000,A01525,1,1552894607000
1552894611406.2500000000,28,47.9500000000,A01525,1,1552894607000
1552894611421.8798828125,28,49.8500000000,A01525,1,1552894607000
1552894611437.5000000000,28,52.2000000000,A01525,1,1552894607000
1552894611453.1201171875,28,55.4200000000,A01525,1,1552894607000
1552894611468.7500000000,28,59.1600000000,A01525,1,1552894607000
1552894611484.3798828125,28,62.9600000000,A01525,1,1552894607000
1552894611500.0000000000,28,66.2800000000,A01525,1,1552894607000
1552894611515.6201171875,28,68.7100000000,A01525,1,1552894607000
1552894611531.2500000000,28,70.0900000000,A01525,1,1552894607000
1552894611546.8798828125,28,70.7000000000,A01525,1,1552894607000
1552894611562.5000000000,28,71.1200000000,A01525,1,1552894607000
1552894611578.1201171875,28,72.0800000000,A01525,1,1552894607000
1552894611593.7500000000,28,74.1300000000,A01525,1,1552894607000
1552894611609.3798828125,28,76.6700000000,A01525,1,1552894607000
1552894611625.0000000000,28,78.8100000000,A01525,1,1552894607000
1552894611640.6201171875,28,79.4300000000,A01525,1,1552894607000
1552894611656.2500000000,28,77.4500000000,A01525,1,1552894607000
1552894611671.8798828125,28,72.1600000000,A01525,1,1552894607000
1552894611687.5000000000,28,63.2700000000,A01525,1,1552894607000
1552894611703.1201171875,28,50.5600000000,A01525,1,1552894607000
1552894611718.7500000000,28,33.3500000000,A01525,1,1552894607000
1552894611734.3798828125,28,15.2200000000,A01525,1,1552894607000
1552894611750.0000000000,28,-2.9900000000,A01525,1,1552894607000
1552894611765.6201171875,28,-21.3100000000,A01525,1,1552894607000
1552894611781.2500000000,28,-40.4300000000,A01525,1,1552894607000
1552894611796.8798828125,28,-61.3000000000,A01525,1,1552894607000
1552894611812.5000000000,28,-84.9900000000,A01525,1,1552894607000
1552894611828.1201171875,28,-112.0500000000,A01525,1,1552894607000
1552894611843.7500000000,28,-142.0900000000,A01525,1,1552894607000
1552894611859.3798828125,28,-173.1700000000,A01525,1,1552894607000
1552894611875.0000000000,28,-201.6900000000,A01525,1,1552894607000
1552894611890.6201171875,28,-223.7500000000,A01525,1,1552894607000
1552894611906.2500000000,28,-235.4700000000,A01525,1,1552894607000
1552894611921.8798828125,28,-234.6100000000,A01525,1,1552894607000
1552894611937.5000000000,28,-221.6000000000,A01525,1,1552894607000
1552894611953.1201171875,28,-199.5800000000,A01525,1,1552894607000
1552894611968.7500000000,28,-173.3100000000,A01525,1,1552894607000
1552894611984.3798828125,28,-147.5700000000,A01525,1,1552894607000
1552894612000.0000000000,28,-125.6200000000,A01525,1,1552894607000
1552894612015.6201171875,28,-108.4700000000,A01525,1,1552894607000
1552894612031.2500000000,28,-95.9000000000,A01525,1,1552894607000
1552894612046.8798828125,28,-86.6200000000,A01525,1,1552894607000
1552894612062.5000000000,28,-79.2900000000,A01525,1,1552894607000
1552894612078.1201171875,28,-73.1300000000,A01525,1,1552894607000
1552894612093.7500000000,28,-67.8600000000,A01525,1,1552894607000
1552894612109.3798828125,28,-63.4000000000,A01525,1,1552894607000
1552894612125.0000000000,28,-59.5400000000,A01525,1,1552894607000
1552894612140.6201171875,28,-55.9100000000,A01525,1,1552894607000
1552894612156.2500000000,28,-51.9800000000,A01525,1,1552894607000
1552894612171.8798828125,28,-47.6700000000,A01525,1,1552894607000
1552894612187.5000000000,28,-42.9800000000,A01525,1,1552894607000
1552894612203.1201171875,28,-38.1300000000,A01525,1,1552894607000
1552894612218.7500000000,28,-33.4100000000,A01525,1,1552894607000
1552894612234.3798828125,28,-28.9900000000,A01525,1,1552894607000
1552894612250.0000000000,28,-24.8400000000,A01525,1,1552894607000
1552894612265.6201171875,28,-20.6700000000,A01525,1,1552894607000
1552894612281.2500000000,28,-16.0400000000,A01525,1,1552894607000
1552894612296.8798828125,28,-10.5300000000,A01525,1,1552894607000
1552894612312.5000000000,28,-4.1500000000,A01525,1,1552894607000
1552894612328.1201171875,28,2.8600000000,A01525,1,1552894607000
1552894612343.7500000000,28,9.9700000000,A01525,1,1552894607000
1552894612359.3798828125,28,16.6100000000,A01525,1,1552894607000
1552894612375.0000000000,28,22.2800000000,A01525,1,1552894607000
1552894612390.6201171875,28,26.7600000000,A01525,1,1552894607000
1552894612406.2500000000,28,30.1700000000,A01525,1,1552894607000
1552894612421.8798828125,28,32.9000000000,A01525,1,1552894607000
1552894612437.5000000000,28,35.5300000000,A01525,1,1552894607000
1552894612453.1201171875,28,38.5200000000,A01525,1,1552894607000
1552894612468.7500000000,28,42.0900000000,A01525,1,1552894607000
1552894612484.3798828125,28,46.1000000000,A01525,1,1552894607000
1552894612500.0000000000,28,50.0800000000,A01525,1,1552894607000
1552894612515.6201171875,28,53.3800000000,A01525,1,1552894607000
1552894612531.2500000000,28,55.4400000000,A01525,1,1552894607000
1552894612546.8798828125,28,56.0400000000,A01525,1,1552894607000
1552894612562.5000000000,28,55.3300000000,A01525,1,1552894607000
1552894612578.1201171875,28,53.7700000000,A01525,1,1552894607000
1552894612593.7500000000,28,51.8500000000,A01525,1,1552894607000
1552894612609.3798828125,28,49.9000000000,A01525,1,1552894607000
1552894612625.0000000000,28,47.9800000000,A01525,1,1552894607000
1552894612640.6201171875,28,45.9000000000,A01525,1,1552894607000
1552894612656.2500000000,28,43.5000000000,A01525,1,1552894607000
1552894612671.8798828125,28,40.6700000000,A01525,1,1552894607000
1552894612687.5000000000,28,37.5300000000,A01525,1,1552894607000
1552894612703.1201171875,28,34.2500000000,A01525,1,1552894607000
1552894612718.7500000000,28,31.0500000000,A01525,1,1552894607000
1552894612734.3798828125,28,28.0000000000,A01525,1,1552894607000
1552894612750.0000000000,28,25.1000000000,A01525,1,1552894607000
1552894612765.6201171875,28,22.2500000000,A01525,1,1552894607000
1552894612781.2500000000,28,19.3800000000,A01525,1,1552894607000
1552894612796.8798828125,28,16.4900000000,A01525,1,1552894607000
1552894612812.5000000000,28,13.6800000000,A01525,1,1552894607000
1552894612828.1201171875,28,11.0400000000,A01525,1,1552894607000
1552894612843.7500000000,28,8.6300000000,A01525,1,1552894607000
1552894612859.3798828125,28,6.4400000000,A01525,1,1552894607000
1552894612875.0000000000,28,4.3300000000,A01525,1,1552894607000
1552894612890.6201171875,28,2.1900000000,A01525,1,1552894607000
1552894612906.2500000000,28,-0.0700000000,A01525,1,1552894607000
1552894612921.8798828125,28,-2.4900000000,A01525,1,1552894607000
1552894612937.5000000000,28,-5.0400000000,A01525,1,1552894607000
1552894612953.1201171875,28,-7.6500000000,A01525,1,1552894607000
1552894612968.7500000000,28,-10.2500000000,A01525,1,1552894607000
1552894612984.3798828125,28,-12.8100000000,A01525,1,1552894607000
1552894613000.0000000000,28,-15.3600000000,A01525,1,1552894607000
1552894613015.6201171875,28,-18.0200000000,A01525,1,1552894607000
1552894613031.2500000000,28,-20.9900000000,A01525,1,1552894607000
1552894613046.8798828125,28,-24.3600000000,A01525,1,1552894607000
1552894613062.5000000000,28,-28.0500000000,A01525,1,1552894607000
1552894613078.1201171875,28,-31.6000000000,A01525,1,1552894607000
1552894613093.7500000000,28,-34.3000000000,A01525,1,1552894607000
1552894613109.3798828125,28,-35.3800000000,A01525,1,1552894607000
1552894613125.0000000000,28,-34.2700000000,A01525,1,1552894607000
1552894613140.6201171875,28,-30.9500000000,A01525,1,1552894607000
1552894613156.2500000000,28,-25.9400000000,A01525,1,1552894607000
1552894613171.8798828125,28,-20.1000000000,A01525,1,1552894607000
1552894613187.5000000000,28,-14.3400000000,A01525,1,1552894607000
1552894613203.1201171875,28,-9.2900000000,A01525,1,1552894607000
1552894613218.7500000000,28,-5.1900000000,A01525,1,1552894607000
1552894613234.3798828125,28,-1.9200000000,A01525,1,1552894607000
1552894613250.0000000000,28,0.7200000000,A01525,1,1552894607000
1552894613265.6201171875,28,2.9000000000,A01525,1,1552894607000
1552894613281.2500000000,28,4.6600000000,A01525,1,1552894607000
1552894613296.8798828125,28,5.9300000000,A01525,1,1552894607000
1552894613312.5000000000,28,6.6600000000,A01525,1,1552894607000
1552894613328.1201171875,28,6.8500000000,A01525,1,1552894607000
1552894613343.7500000000,28,6.5900000000,A01525,1,1552894607000
1552894613359.3798828125,28,6.0500000000,A01525,1,1552894607000
1552894613375.0000000000,28,5.4500000000,A01525,1,1552894607000
1552894613390.6201171875,28,5.0000000000,A01525,1,1552894607000
1552894613406.2500000000,28,4.9200000000,A01525,1,1552894607000
1552894613421.8798828125,28,5.2900000000,A01525,1,1552894607000
1552894613437.5000000000,28,6.0800000000,A01525,1,1552894607000
1552894613453.1201171875,28,7.0900000000,A01525,1,1552894607000
1552894613468.7500000000,28,8.0600000000,A01525,1,1552894607000
1552894613484.3798828125,28,8.7700000000,A01525,1,1552894607000
1552894613500.0000000000,28,9.2100000000,A01525,1,1552894607000
1552894613515.6201171875,28,9.4800000000,A01525,1,1552894607000
1552894613531.2500000000,28,9.8000000000,A01525,1,1552894607000
1552894613546.8798828125,28,10.3200000000,A01525,1,1552894607000
1552894613562.5000000000,28,11.0700000000,A01525,1,1552894607000
1552894613578.1201171875,28,12.0200000000,A01525,1,1552894607000
1552894613593.7500000000,28,13.1400000000,A01525,1,1552894607000
1552894613609.3798828125,28,14.4400000000,A01525,1,1552894607000
1552894613625.0000000000,28,15.9500000000,A01525,1,1552894607000
1552894613640.6201171875,28,17.6100000000,A01525,1,1552894607000
1552894613656.2500000000,28,19.1900000000,A01525,1,1552894607000
1552894613671.8798828125,28,20.3300000000,A01525,1,1552894607000
1552894613687.5000000000,28,20.6800000000,A01525,1,1552894607000
1552894613703.1201171875,28,20.1000000000,A01525,1,1552894607000
1552894613718.7500000000,28,18.7400000000,A01525,1,1552894607000
1552894613734.3798828125,28,17.0100000000,A01525,1,1552894607000
1552894613750.0000000000,28,15.3500000000,A01525,1,1552894607000
1552894613765.6201171875,28,14.0600000000,A01525,1,1552894607000
1552894613781.2500000000,28,13.1400000000,A01525,1,1552894607000
1552894613796.8798828125,28,12.3300000000,A01525,1,1552894607000
1552894613812.5000000000,28,11.2300000000,A01525,1,1552894607000
1552894613828.1201171875,28,9.4700000000,A01525,1,1552894607000
1552894613843.7500000000,28,6.8200000000,A01525,1,1552894607000
1552894613859.3798828125,28,3.2300000000,A01525,1,1552894607000
1552894613875.0000000000,28,-1.1800000000,A01525,1,1552894607000
1552894613890.6201171875,28,-6.1000000000,A01525,1,1552894607000
1552894613906.2500000000,28,-11.0100000000,A01525,1,1552894607000
1552894613921.8798828125,28,-15.1600000000,A01525,1,1552894607000
1552894613937.5000000000,28,-17.6400000000,A01525,1,1552894607000
1552894613953.1201171875,28,-17.5500000000,A01525,1,1552894607000
1552894613968.7500000000,28,-14.4000000000,A01525,1,1552894607000
1552894613984.3798828125,28,-8.3400000000,A01525,1,1552894607000
1552894614000.0000000000,28,-0.3500000000,A01525,1,1552894607000
1552894614015.6201171875,28,8.0000000000,A01525,1,1552894607000
1552894614031.2500000000,28,15.1100000000,A01525,1,1552894607000
1552894614046.8798828125,28,19.8200000000,A01525,1,1552894607000
1552894614062.5000000000,28,21.9100000000,A01525,1,1552894607000
1552894614078.1201171875,28,22.0500000000,A01525,1,1552894607000
1552894614093.7500000000,28,21.4000000000,A01525,1,1552894607000
1552894614109.3798828125,28,21.1100000000,A01525,1,1552894607000
1552894614125.0000000000,28,21.8000000000,A01525,1,1552894607000
1552894614140.6201171875,28,23.4700000000,A01525,1,1552894607000
1552894614156.2500000000,28,25.6700000000,A01525,1,1552894607000
1552894614171.8798828125,28,27.8000000000,A01525,1,1552894607000
1552894614187.5000000000,28,29.4900000000,A01525,1,1552894607000
1552894614203.1201171875,28,30.6000000000,A01525,1,1552894607000
1552894614218.7500000000,28,31.1500000000,A01525,1,1552894607000
1552894614234.3798828125,28,31.1500000000,A01525,1,1552894607000
1552894614250.0000000000,28,30.4400000000,A01525,1,1552894607000
1552894614265.6201171875,28,28.8200000000,A01525,1,1552894607000
1552894614281.2500000000,28,26.1600000000,A01525,1,1552894607000
1552894614296.8798828125,28,22.6200000000,A01525,1,1552894607000
1552894614312.5000000000,28,18.6600000000,A01525,1,1552894607000
1552894614328.1201171875,28,14.9700000000,A01525,1,1552894607000
1552894614343.7500000000,28,12.1200000000,A01525,1,1552894607000
1552894614359.3798828125,28,10.3300000000,A01525,1,1552894607000
1552894614375.0000000000,28,9.3900000000,A01525,1,1552894607000
1552894614390.6201171875,28,8.7100000000,A01525,1,1552894607000
1552894614406.2500000000,28,7.6500000000,A01525,1,1552894607000
1552894614421.8798828125,28,5.8400000000,A01525,1,1552894607000
1552894614437.5000000000,28,3.2700000000,A01525,1,1552894607000
1552894614453.1201171875,28,0.3300000000,A01525,1,1552894607000
1552894614468.7500000000,28,-2.4700000000,A01525,1,1552894607000
1552894614484.3798828125,28,-4.7600000000,A01525,1,1552894607000
1552894614500.0000000000,28,-6.4600000000,A01525,1,1552894607000
1552894614515.6201171875,28,-7.8100000000,A01525,1,1552894607000
1552894614531.2500000000,28,-9.2500000000,A01525,1,1552894607000
1552894614546.8798828125,28,-11.2300000000,A01525,1,1552894607000
1552894614562.5000000000,28,-14.0100000000,A01525,1,1552894607000
1552894614578.1201171875,28,-17.5200000000,A01525,1,1552894607000
1552894614593.7500000000,28,-21.4700000000,A01525,1,1552894607000
1552894614609.3798828125,28,-25.2900000000,A01525,1,1552894607000
1552894614625.0000000000,28,-28.4200000000,A01525,1,1552894607000
1552894614640.6201171875,28,-30.3800000000,A01525,1,1552894607000
1552894614656.2500000000,28,-30.9800000000,A01525,1,1552894607000
1552894614671.8798828125,28,-30.3400000000,A01525,1,1552894607000
1552894614687.5000000000,28,-28.9100000000,A01525,1,1552894607000
1552894614703.1201171875,28,-27.3700000000,A01525,1,1552894607000
1552894614718.7500000000,28,-26.4400000000,A01525,1,1552894607000
1552894614734.3798828125,28,-26.6400000000,A01525,1,1552894607000
1552894614750.0000000000,28,-28.1400000000,A01525,1,1552894607000
1552894614765.6201171875,28,-30.5400000000,A01525,1,1552894607000
1552894614781.2500000000,28,-33.0300000000,A01525,1,1552894607000
1552894614796.8798828125,28,-34.6100000000,A01525,1,1552894607000
1552894614812.5000000000,28,-34.4400000000,A01525,1,1552894607000
1552894614828.1201171875,28,-32.1100000000,A01525,1,1552894607000
1552894614843.7500000000,28,-27.8200000000,A01525,1,1552894607000
1552894614859.3798828125,28,-22.1900000000,A01525,1,1552894607000
1552894614875.0000000000,28,-16.0600000000,A01525,1,1552894607000
1552894614890.6201171875,28,-10.1000000000,A01525,1,1552894607000
1552894614906.2500000000,28,-4.6500000000,A01525,1,1552894607000
1552894614921.8798828125,28,0.2700000000,A01525,1,1552894607000
1552894614937.5000000000,28,4.8300000000,A01525,1,1552894607000
1552894614953.1201171875,28,9.1400000000,A01525,1,1552894607000
1552894614968.7500000000,28,13.1600000000,A01525,1,1552894607000
1552894614984.3798828125,28,16.7400000000,A01525,1,1552894607000
1552894615000.0000000000,28,19.6600000000,A01525,1,1552894607000
1552894615015.6201171875,28,21.8300000000,A01525,1,1552894607000
1552894615031.2500000000,28,23.2800000000,A01525,1,1552894607000
1552894615046.8798828125,28,24.1800000000,A01525,1,1552894607000
1552894615062.5000000000,28,24.7500000000,A01525,1,1552894607000
1552894615078.1201171875,28,25.1700000000,A01525,1,1552894607000
1552894615093.7500000000,28,25.4600000000,A01525,1,1552894607000
1552894615109.3798828125,28,25.6200000000,A01525,1,1552894607000
1552894615125.0000000000,28,25.5500000000,A01525,1,1552894607000
1552894615140.6201171875,28,25.1900000000,A01525,1,1552894607000
1552894615156.2500000000,28,24.5300000000,A01525,1,1552894607000
1552894615171.8798828125,28,23.6300000000,A01525,1,1552894607000
1552894615187.5000000000,28,22.5800000000,A01525,1,1552894607000
1552894615203.1201171875,28,21.4800000000,A01525,1,1552894607000
1552894615218.7500000000,28,20.3800000000,A01525,1,1552894607000
1552894615234.3798828125,28,19.3200000000,A01525,1,1552894607000
1552894615250.0000000000,28,18.2300000000,A01525,1,1552894607000
1552894615265.6201171875,28,17.0100000000,A01525,1,1552894607000
1552894615281.2500000000,28,15.5900000000,A01525,1,1552894607000
1552894615296.8798828125,28,13.9200000000,A01525,1,1552894607000
1552894615312.5000000000,28,12.0600000000,A01525,1,1552894607000
1552894615328.1201171875,28,10.1100000000,A01525,1,1552894607000
1552894615343.7500000000,28,8.1900000000,A01525,1,1552894607000
1552894615359.3798828125,28,6.3700000000,A01525,1,1552894607000
1552894615375.0000000000,28,4.6200000000,A01525,1,1552894607000
1552894615390.6201171875,28,2.7900000000,A01525,1,1552894607000
1552894615406.2500000000,28,0.7200000000,A01525,1,1552894607000
1552894615421.8798828125,28,-1.6800000000,A01525,1,1552894607000
1552894615437.5000000000,28,-4.4500000000,A01525,1,1552894607000
1552894615453.1201171875,28,-7.4600000000,A01525,1,1552894607000
1552894615468.7500000000,28,-10.5700000000,A01525,1,1552894607000
1552894615484.3798828125,28,-13.6100000000,A01525,1,1552894607000
1552894615500.0000000000,28,-16.5200000000,A01525,1,1552894607000
1552894615515.6201171875,28,-19.2900000000,A01525,1,1552894607000
1552894615531.2500000000,28,-22.0400000000,A01525,1,1552894607000
1552894615546.8798828125,28,-24.9600000000,A01525,1,1552894607000
1552894615562.5000000000,28,-28.2700000000,A01525,1,1552894607000
1552894615578.1201171875,28,-32.2100000000,A01525,1,1552894607000
1552894615593.7500000000,28,-36.9000000000,A01525,1,1552894607000
1552894615609.3798828125,28,-42.1900000000,A01525,1,1552894607000
1552894615625.0000000000,28,-47.5800000000,A01525,1,1552894607000
1552894615640.6201171875,28,-52.2200000000,A01525,1,1552894607000
1552894615656.2500000000,28,-55.1400000000,A01525,1,1552894607000
1552894615671.8798828125,28,-55.6000000000,A01525,1,1552894607000
1552894615687.5000000000,28,-53.4100000000,A01525,1,1552894607000
1552894615703.1201171875,28,-49.0600000000,A01525,1,1552894607000
1552894615718.7500000000,28,-43.5400000000,A01525,1,1552894607000
1552894615734.3798828125,28,-37.9500000000,A01525,1,1552894607000
1552894615750.0000000000,28,-33.0300000000,A01525,1,1552894607000
1552894615765.6201171875,28,-28.9400000000,A01525,1,1552894607000
1552894615781.2500000000,28,-25.3000000000,A01525,1,1552894607000
1552894615796.8798828125,28,-21.4300000000,A01525,1,1552894607000
1552894615812.5000000000,28,-16.7600000000,A01525,1,1552894607000
1552894615828.1201171875,28,-10.9700000000,A01525,1,1552894607000
1552894615843.7500000000,28,-4.1300000000,A01525,1,1552894607000
1552894615859.3798828125,28,3.4300000000,A01525,1,1552894607000
1552894615875.0000000000,28,11.2600000000,A01525,1,1552894607000
1552894615890.6201171875,28,18.9200000000,A01525,1,1552894607000
1552894615906.2500000000,28,26.0900000000,A01525,1,1552894607000
1552894615921.8798828125,28,32.5800000000,A01525,1,1552894607000
1552894615937.5000000000,28,38.3500000000,A01525,1,1552894607000
1552894615953.1201171875,28,43.3700000000,A01525,1,1552894607000
1552894615968.7500000000,28,47.5400000000,A01525,1,1552894607000
1552894615984.3798828125,28,50.5900000000,A01525,1,1552894607000
1552894616000.0000000000,28,52.1200000000,A01525,1,1552894607000
1552894616015.6201171875,28,51.7400000000,A01525,1,1552894607000
1552894616031.2500000000,28,49.2500000000,A01525,1,1552894607000
1552894616046.8798828125,28,44.8600000000,A01525,1,1552894607000
1552894616062.5000000000,28,39.1400000000,A01525,1,1552894607000
1552894616078.1201171875,28,32.8100000000,A01525,1,1552894607000
1552894616093.7500000000,28,26.6100000000,A01525,1,1552894607000
1552894616109.3798828125,28,21.0200000000,A01525,1,1552894607000
1552894616125.0000000000,28,16.2200000000,A01525,1,1552894607000
1552894616140.6201171875,28,12.1600000000,A01525,1,1552894607000
1552894616156.2500000000,28,8.6800000000,A01525,1,1552894607000
1552894616171.8798828125,28,5.6400000000,A01525,1,1552894607000
1552894616187.5000000000,28,2.9100000000,A01525,1,1552894607000
1552894616203.1201171875,28,0.3400000000,A01525,1,1552894607000
1552894616218.7500000000,28,-2.2900000000,A01525,1,1552894607000
1552894616234.3798828125,28,-5.2700000000,A01525,1,1552894607000
1552894616250.0000000000,28,-8.8500000000,A01525,1,1552894607000
1552894616265.6201171875,28,-13.1000000000,A01525,1,1552894607000
1552894616281.2500000000,28,-17.8400000000,A01525,1,1552894607000
1552894616296.8798828125,28,-22.5900000000,A01525,1,1552894607000
1552894616312.5000000000,28,-26.9000000000,A01525,1,1552894607000
1552894616328.1201171875,28,-30.4200000000,A01525,1,1552894607000
1552894616343.7500000000,28,-33.1500000000,A01525,1,1552894607000
1552894616359.3798828125,28,-35.3200000000,A01525,1,1552894607000
1552894616375.0000000000,28,-37.2900000000,A01525,1,1552894607000
1552894616390.6201171875,28,-39.3600000000,A01525,1,1552894607000
1552894616406.2500000000,28,-41.6300000000,A01525,1,1552894607000
1552894616421.8798828125,28,-44.0500000000,A01525,1,1552894607000
1552894616437.5000000000,28,-46.5400000000,A01525,1,1552894607000
1552894616453.1201171875,28,-49.0800000000,A01525,1,1552894607000
1552894616468.7500000000,28,-51.6500000000,A01525,1,1552894607000
1552894616484.3798828125,28,-54.0900000000,A01525,1,1552894607000
1552894616500.0000000000,28,-55.9200000000,A01525,1,1552894607000
1552894616515.6201171875,28,-56.3200000000,A01525,1,1552894607000
1552894616531.2500000000,28,-54.3600000000,A01525,1,1552894607000
1552894616546.8798828125,28,-49.4200000000,A01525,1,1552894607000
1552894616562.5000000000,28,-41.4500000000,A01525,1,1552894607000
1552894616578.1201171875,28,-31.1800000000,A01525,1,1552894607000
1552894616593.7500000000,28,-19.8800000000,A01525,1,1552894607000
1552894616609.3798828125,28,-8.8700000000,A01525,1,1552894607000
1552894616625.0000000000,28,0.8800000000,A01525,1,1552894607000
1552894616640.6201171875,28,9.0000000000,A01525,1,1552894607000
1552894616656.2500000000,28,15.7700000000,A01525,1,1552894607000
1552894616671.8798828125,28,21.7000000000,A01525,1,1552894607000
1552894616687.5000000000,28,27.2500000000,A01525,1,1552894607000
1552894616703.1201171875,28,32.5200000000,A01525,1,1552894607000
1552894616718.7500000000,28,37.2900000000,A01525,1,1552894607000
1552894616734.3798828125,28,41.1700000000,A01525,1,1552894607000
1552894616750.0000000000,28,43.8500000000,A01525,1,1552894607000
1552894616765.6201171875,28,45.2300000000,A01525,1,1552894607000
1552894616781.2500000000,28,45.4600000000,A01525,1,1552894607000
1552894616796.8798828125,28,44.8100000000,A01525,1,1552894607000
1552894616812.5000000000,28,43.5700000000,A01525,1,1552894607000
1552894616828.1201171875,28,41.9800000000,A01525,1,1552894607000
1552894616843.7500000000,28,40.2200000000,A01525,1,1552894607000
1552894616859.3798828125,28,38.4600000000,A01525,1,1552894607000
1552894616875.0000000000,28,36.8800000000,A01525,1,1552894607000
1552894616890.6201171875,28,35.6000000000,A01525,1,1552894607000
1552894616906.2500000000,28,34.6400000000,A01525,1,1552894607000
1552894616921.8798828125,28,33.9100000000,A01525,1,1552894607000
1552894616937.5000000000,28,33.1700000000,A01525,1,1552894607000
1552894616953.1201171875,28,32.1300000000,A01525,1,1552894607000
1552894616968.7500000000,28,30.4700000000,A01525,1,1552894607000
1552894616984.3798828125,28,28.0200000000,A01525,1,1552894607000
1552894617000.0000000000,28,24.7900000000,A01525,1,1552894607000
1552894617015.6201171875,28,21.0600000000,A01525,1,1552894607000
1552894617031.2500000000,28,17.2800000000,A01525,1,1552894607000
1552894617046.8798828125,28,13.9900000000,A01525,1,1552894607000
1552894617062.5000000000,28,11.5600000000,A01525,1,1552894607000
1552894617078.1201171875,28,10.0700000000,A01525,1,1552894607000
1552894617093.7500000000,28,9.2400000000,A01525,1,1552894607000
1552894617109.3798828125,28,8.5500000000,A01525,1,1552894607000
1552894617125.0000000000,28,7.4000000000,A01525,1,1552894607000
1552894617140.6201171875,28,5.3600000000,A01525,1,1552894607000
1552894617156.2500000000,28,2.2600000000,A01525,1,1552894607000
1552894617171.8798828125,28,-1.8100000000,A01525,1,1552894607000
1552894617187.5000000000,28,-6.5800000000,A01525,1,1552894607000
1552894617203.1201171875,28,-11.7000000000,A01525,1,1552894607000
1552894617218.7500000000,28,-16.8400000000,A01525,1,1552894607000
1552894617234.3798828125,28,-21.7500000000,A01525,1,1552894607000
1552894617250.0000000000,28,-26.3000000000,A01525,1,1552894607000
1552894617265.6201171875,28,-30.4800000000,A01525,1,1552894607000
1552894617281.2500000000,28,-34.4300000000,A01525,1,1552894607000
1552894617296.8798828125,28,-38.4100000000,A01525,1,1552894607000
1552894617312.5000000000,28,-42.7500000000,A01525,1,1552894607000
1552894617328.1201171875,28,-47.7400000000,A01525,1,1552894607000
1552894617343.7500000000,28,-53.5200000000,A01525,1,1552894607000
1552894617359.3798828125,28,-59.8500000000,A01525,1,1552894607000
1552894617375.0000000000,28,-66.0300000000,A01525,1,1552894607000
1552894617390.6201171875,28,-70.9400000000,A01525,1,1552894607000
1552894617406.2500000000,28,-73.3100000000,A01525,1,1552894607000
1552894617421.8798828125,28,-72.0600000000,A01525,1,1552894607000
1552894617437.5000000000,28,-66.7500000000,A01525,1,1552894607000
1552894617453.1201171875,28,-57.7600000000,A01525,1,1552894607000
1552894617468.7500000000,28,-46.2000000000,A01525,1,1552894607000
1552894617484.3798828125,28,-33.5500000000,A01525,1,1552894607000
1552894617500.0000000000,28,-21.1700000000,A01525,1,1552894607000
1552894617515.6201171875,28,-10.0100000000,A01525,1,1552894607000
1552894617531.2500000000,28,-0.4600000000,A01525,1,1552894607000
1552894617546.8798828125,28,7.5300000000,A01525,1,1552894607000
1552894617562.5000000000,28,14.2100000000,A01525,1,1552894607000
1552894617578.1201171875,28,19.8400000000,A01525,1,1552894607000
1552894617593.7500000000,28,24.6000000000,A01525,1,1552894607000
1552894617609.3798828125,28,28.5700000000,A01525,1,1552894607000
1552894617625.0000000000,28,31.7700000000,A01525,1,1552894607000
1552894617640.6201171875,28,34.2100000000,A01525,1,1552894607000
1552894617656.2500000000,28,35.9500000000,A01525,1,1552894607000
1552894617671.8798828125,28,37.0600000000,A01525,1,1552894607000
1552894617687.5000000000,28,37.6600000000,A01525,1,1552894607000
1552894617703.1201171875,28,37.8600000000,A01525,1,1552894607000
1552894617718.7500000000,28,37.6600000000,A01525,1,1552894607000
1552894617734.3798828125,28,37.0000000000,A01525,1,1552894607000
1552894617750.0000000000,28,35.7300000000,A01525,1,1552894607000
1552894617765.6201171875,28,33.7300000000,A01525,1,1552894607000
1552894617781.2500000000,28,31.1000000000,A01525,1,1552894607000
1552894617796.8798828125,28,28.1600000000,A01525,1,1552894607000
1552894617812.5000000000,28,25.4700000000,A01525,1,1552894607000
1552894617828.1201171875,28,23.5200000000,A01525,1,1552894607000
1552894617843.7500000000,28,22.6100000000,A01525,1,1552894607000
1552894617859.3798828125,28,22.6500000000,A01525,1,1552894607000
1552894617875.0000000000,28,23.1900000000,A01525,1,1552894607000
1552894617890.6201171875,28,23.6200000000,A01525,1,1552894607000
1552894617906.2500000000,28,23.4100000000,A01525,1,1552894607000
1552894617921.8798828125,28,22.3500000000,A01525,1,1552894607000
1552894617937.5000000000,28,20.5500000000,A01525,1,1552894607000
1552894617953.1201171875,28,18.3500000000,A01525,1,1552894607000
1552894617968.7500000000,28,16.1500000000,A01525,1,1552894607000
1552894617984.3798828125,28,14.2200000000,A01525,1,1552894607000
1552894618000.0000000000,28,12.6100000000,A01525,1,1552894607000
1552894618015.6201171875,28,11.1400000000,A01525,1,1552894607000
1552894618031.2500000000,28,9.5300000000,A01525,1,1552894607000
1552894618046.8798828125,28,7.4800000000,A01525,1,1552894607000
1552894618062.5000000000,28,4.8300000000,A01525,1,1552894607000
1552894618078.1201171875,28,1.6500000000,A01525,1,1552894607000
1552894618093.7500000000,28,-1.8000000000,A01525,1,1552894607000
1552894618109.3798828125,28,-5.2200000000,A01525,1,1552894607000
1552894618125.0000000000,28,-8.3400000000,A01525,1,1552894607000
1552894618140.6201171875,28,-11.0700000000,A01525,1,1552894607000
1552894618156.2500000000,28,-13.5300000000,A01525,1,1552894607000
1552894618171.8798828125,28,-15.9300000000,A01525,1,1552894607000
1552894618187.5000000000,28,-18.5000000000,A01525,1,1552894607000
1552894618203.1201171875,28,-21.4100000000,A01525,1,1552894607000
1552894618218.7500000000,28,-24.7400000000,A01525,1,1552894607000
1552894618234.3798828125,28,-28.5200000000,A01525,1,1552894607000
1552894618250.0000000000,28,-32.6600000000,A01525,1,1552894607000
1552894618265.6201171875,28,-36.9000000000,A01525,1,1552894607000
1552894618281.2500000000,28,-40.7000000000,A01525,1,1552894607000
1552894618296.8798828125,28,-43.2700000000,A01525,1,1552894607000
1552894618312.5000000000,28,-43.7500000000,A01525,1,1552894607000
1552894618328.1201171875,28,-41.4900000000,A01525,1,1552894607000
1552894618343.7500000000,28,-36.4100000000,A01525,1,1552894607000
1552894618359.3798828125,28,-29.0400000000,A01525,1,1552894607000
1552894618375.0000000000,28,-20.4400000000,A01525,1,1552894607000
1552894618390.6201171875,28,-11.8600000000,A01525,1,1552894607000
1552894618406.2500000000,28,-4.2800000000,A01525,1,1552894607000
1552894618421.8798828125,28,1.7900000000,A01525,1,1552894607000
1552894618437.5000000000,28,6.3200000000,A01525,1,1552894607000
1552894618453.1201171875,28,9.6000000000,A01525,1,1552894607000
1552894618468.7500000000,28,12.0100000000,A01525,1,1552894607000
1552894618484.3798828125,28,13.8200000000,A01525,1,1552894607000
1552894618500.0000000000,28,15.1300000000,A01525,1,1552894607000
1552894618515.6201171875,28,15.9900000000,A01525,1,1552894607000
1552894618531.2500000000,28,16.3700000000,A01525,1,1552894607000
1552894618546.8798828125,28,16.3300000000,A01525,1,1552894607000
1552894618562.5000000000,28,15.9800000000,A01525,1,1552894607000
1552894618578.1201171875,28,15.5300000000,A01525,1,1552894607000
1552894618593.7500000000,28,15.2200000000,A01525,1,1552894607000
1552894618609.3798828125,28,15.2100000000,A01525,1,1552894607000
1552894618625.0000000000,28,15.5300000000,A01525,1,1552894607000
1552894618640.6201171875,28,16.0500000000,A01525,1,1552894607000
1552894618656.2500000000,28,16.5700000000,A01525,1,1552894607000
1552894618671.8798828125,28,16.9000000000,A01525,1,1552894607000
1552894618687.5000000000,28,16.9600000000,A01525,1,1552894607000
1552894618703.1201171875,28,16.8400000000,A01525,1,1552894607000
1552894618718.7500000000,28,16.6700000000,A01525,1,1552894607000
1552894618734.3798828125,28,16.5000000000,A01525,1,1552894607000
1552894618750.0000000000,28,16.2500000000,A01525,1,1552894607000
1552894618765.6201171875,28,15.7100000000,A01525,1,1552894607000
1552894618781.2500000000,28,14.6900000000,A01525,1,1552894607000
1552894618796.8798828125,28,13.1900000000,A01525,1,1552894607000
1552894618812.5000000000,28,11.4000000000,A01525,1,1552894607000
1552894618828.1201171875,28,9.6300000000,A01525,1,1552894607000
1552894618843.7500000000,28,8.1500000000,A01525,1,1552894607000
1552894618859.3798828125,28,7.0900000000,A01525,1,1552894607000
1552894618875.0000000000,28,6.3500000000,A01525,1,1552894607000
1552894618890.6201171875,28,5.7100000000,A01525,1,1552894607000
1552894618906.2500000000,28,4.8900000000,A01525,1,1552894607000
1552894618921.8798828125,28,3.7000000000,A01525,1,1552894607000
1552894618937.5000000000,28,2.1000000000,A01525,1,1552894607000
1552894618953.1201171875,28,0.1900000000,A01525,1,1552894607000
1552894618968.7500000000,28,-1.8000000000,A01525,1,1552894607000
1552894618984.3798828125,28,-3.6500000000,A01525,1,1552894607000
1552894619000.0000000000,28,-5.2100000000,A01525,1,1552894607000
1552894619015.6201171875,28,-6.4700000000,A01525,1,1552894607000
1552894619031.2500000000,28,-7.6300000000,A01525,1,1552894607000
1552894619046.8798828125,28,-9.0100000000,A01525,1,1552894607000
1552894619062.5000000000,28,-10.9900000000,A01525,1,1552894607000
1552894619078.1201171875,28,-13.8800000000,A01525,1,1552894607000
1552894619093.7500000000,28,-17.7800000000,A01525,1,1552894607000
1552894619109.3798828125,28,-22.5700000000,A01525,1,1552894607000
1552894619125.0000000000,28,-27.7700000000,A01525,1,1552894607000
1552894619140.6201171875,28,-32.5600000000,A01525,1,1552894607000
1552894619156.2500000000,28,-35.9100000000,A01525,1,1552894607000
1552894619171.8798828125,28,-36.7900000000,A01525,1,1552894607000
1552894619187.5000000000,28,-34.5700000000,A01525,1,1552894607000
1552894619203.1201171875,28,-29.2500000000,A01525,1,1552894607000
1552894619218.7500000000,28,-21.5400000000,A01525,1,1552894607000
1552894619234.3798828125,28,-12.6900000000,A01525,1,1552894607000
1552894619250.0000000000,28,-4.0300000000,A01525,1,1552894607000
1552894619265.6201171875,28,3.4500000000,A01525,1,1552894607000
1552894619281.2500000000,28,9.3600000000,A01525,1,1552894607000
1552894619296.8798828125,28,13.8300000000,A01525,1,1552894607000
1552894619312.5000000000,28,17.3400000000,A01525,1,1552894607000
1552894619328.1201171875,28,20.2700000000,A01525,1,1552894607000
1552894619343.7500000000,28,22.8300000000,A01525,1,1552894607000
1552894619359.3798828125,28,24.8800000000,A01525,1,1552894607000
1552894619375.0000000000,28,26.2300000000,A01525,1,1552894607000
1552894619390.6201171875,28,26.7100000000,A01525,1,1552894607000
1552894619406.2500000000,28,26.3400000000,A01525,1,1552894607000
1552894619421.8798828125,28,25.3500000000,A01525,1,1552894607000
1552894619437.5000000000,28,24.0400000000,A01525,1,1552894607000
1552894619453.1201171875,28,22.7200000000,A01525,1,1552894607000
1552894619468.7500000000,28,21.5700000000,A01525,1,1552894607000
1552894619484.3798828125,28,20.6400000000,A01525,1,1552894607000
1552894619500.0000000000,28,19.8700000000,A01525,1,1552894607000
1552894619515.6201171875,28,19.1700000000,A01525,1,1552894607000
1552894619531.2500000000,28,18.5500000000,A01525,1,1552894607000
1552894619546.8798828125,28,18.0600000000,A01525,1,1552894607000
1552894619562.5000000000,28,17.8200000000,A01525,1,1552894607000
1552894619578.1201171875,28,17.8700000000,A01525,1,1552894607000
1552894619593.7500000000,28,18.1200000000,A01525,1,1552894607000
1552894619609.3798828125,28,18.3400000000,A01525,1,1552894607000
1552894619625.0000000000,28,18.2100000000,A01525,1,1552894607000
1552894619640.6201171875,28,17.4800000000,A01525,1,1552894607000
1552894619656.2500000000,28,16.0200000000,A01525,1,1552894607000
1552894619671.8798828125,28,14.0000000000,A01525,1,1552894607000
1552894619687.5000000000,28,11.7400000000,A01525,1,1552894607000
1552894619703.1201171875,28,9.5700000000,A01525,1,1552894607000
1552894619718.7500000000,28,7.7100000000,A01525,1,1552894607000
1552894619734.3798828125,28,6.0700000000,A01525,1,1552894607000
1552894619750.0000000000,28,4.2900000000,A01525,1,1552894607000
1552894619765.6201171875,28,2.0000000000,A01525,1,1552894607000
1552894619781.2500000000,28,-1.0300000000,A01525,1,1552894607000
1552894619796.8798828125,28,-4.7200000000,A01525,1,1552894607000
1552894619812.5000000000,28,-8.6400000000,A01525,1,1552894607000
1552894619828.1201171875,28,-12.2900000000,A01525,1,1552894607000
1552894619843.7500000000,28,-15.2600000000,A01525,1,1552894607000
1552894619859.3798828125,28,-17.4700000000,A01525,1,1552894607000
1552894619875.0000000000,28,-19.1100000000,A01525,1,1552894607000
1552894619890.6201171875,28,-20.6500000000,A01525,1,1552894607000
1552894619906.2500000000,28,-22.5700000000,A01525,1,1552894607000
1552894619921.8798828125,28,-25.2400000000,A01525,1,1552894607000
1552894619937.5000000000,28,-28.7500000000,A01525,1,1552894607000
1552894619953.1201171875,28,-32.7600000000,A01525,1,1552894607000
1552894619968.7500000000,28,-36.5300000000,A01525,1,1552894607000
1552894619984.3798828125,28,-39.0300000000,A01525,1,1552894607000
1552894620000.0000000000,28,-39.1800000000,A01525,1,1552894607000
1552894620015.6201171875,28,-36.3000000000,A01525,1,1552894607000
1552894620031.2500000000,28,-30.3600000000,A01525,1,1552894607000
1552894620046.8798828125,28,-22.0500000000,A01525,1,1552894607000
1552894620062.5000000000,28,-12.5900000000,A01525,1,1552894607000
1552894620078.1201171875,28,-3.3100000000,A01525,1,1552894607000
1552894620093.7500000000,28,4.7600000000,A01525,1,1552894607000
1552894620109.3798828125,28,11.1200000000,A01525,1,1552894607000
1552894620125.0000000000,28,15.8000000000,A01525,1,1552894607000
1552894620140.6201171875,28,19.1300000000,A01525,1,1552894607000
1552894620156.2500000000,28,21.5300000000,A01525,1,1552894607000
1552894620171.8798828125,28,23.3100000000,A01525,1,1552894607000
1552894620187.5000000000,28,24.7000000000,A01525,1,1552894607000
1552894620203.1201171875,28,25.7900000000,A01525,1,1552894607000
1552894620218.7500000000,28,26.6800000000,A01525,1,1552894607000
1552894620234.3798828125,28,27.4300000000,A01525,1,1552894607000
1552894620250.0000000000,28,28.0900000000,A01525,1,1552894607000
1552894620265.6201171875,28,28.6400000000,A01525,1,1552894607000
1552894620281.2500000000,28,28.9900000000,A01525,1,1552894607000
1552894620296.8798828125,28,29.0500000000,A01525,1,1552894607000
1552894620312.5000000000,28,28.7500000000,A01525,1,1552894607000
1552894620328.1201171875,28,28.1400000000,A01525,1,1552894607000
1552894620343.7500000000,28,27.3800000000,A01525,1,1552894607000
1552894620359.3798828125,28,26.6500000000,A01525,1,1552894607000
1552894620375.0000000000,28,26.1300000000,A01525,1,1552894607000
1552894620390.6201171875,28,25.8000000000,A01525,1,1552894607000
1552894620406.2500000000,28,25.4900000000,A01525,1,1552894607000
1552894620421.8798828125,28,24.8900000000,A01525,1,1552894607000
1552894620437.5000000000,28,23.7100000000,A01525,1,1552894607000
1552894620453.1201171875,28,21.8300000000,A01525,1,1552894607000
1552894620468.7500000000,28,19.3000000000,A01525,1,1552894607000
1552894620484.3798828125,28,16.4100000000,A01525,1,1552894607000
1552894620500.0000000000,28,13.4700000000,A01525,1,1552894607000
1552894620515.6201171875,28,10.7600000000,A01525,1,1552894607000
1552894620531.2500000000,28,8.4300000000,A01525,1,1552894607000
1552894620546.8798828125,28,6.4400000000,A01525,1,1552894607000
1552894620562.5000000000,28,4.6500000000,A01525,1,1552894607000
1552894620578.1201171875,28,2.8500000000,A01525,1,1552894607000
1552894620593.7500000000,28,0.8200000000,A01525,1,1552894607000
1552894620609.3798828125,28,-1.6000000000,A01525,1,1552894607000
1552894620625.0000000000,28,-4.4700000000,A01525,1,1552894607000
1552894620640.6201171875,28,-7.7400000000,A01525,1,1552894607000
1552894620656.2500000000,28,-11.2700000000,A01525,1,1552894607000
1552894620671.8798828125,28,-14.8900000000,A01525,1,1552894607000
1552894620687.5000000000,28,-18.4600000000,A01525,1,1552894607000
1552894620703.1201171875,28,-21.9800000000,A01525,1,1552894607000
1552894620718.7500000000,28,-25.5900000000,A01525,1,1552894607000
1552894620734.3798828125,28,-29.5300000000,A01525,1,1552894607000
1552894620750.0000000000,28,-34.0800000000,A01525,1,1552894607000
1552894620765.6201171875,28,-39.3800000000,A01525,1,1552894607000
1552894620781.2500000000,28,-45.2500000000,A01525,1,1552894607000
1552894620796.8798828125,28,-51.1300000000,A01525,1,1552894607000
1552894620812.5000000000,28,-56.0900000000,A01525,1,1552894607000
1552894620828.1201171875,28,-59.0200000000,A01525,1,1552894607000
1552894620843.7500000000,28,-59.0000000000,A01525,1,1552894607000
1552894620859.3798828125,28,-55.6400000000,A01525,1,1552894607000
1552894620875.0000000000,28,-49.2300000000,A01525,1,1552894607000
1552894620890.6201171875,28,-40.7100000000,A01525,1,1552894607000
1552894620906.2500000000,28,-31.3100000000,A01525,1,1552894607000
1552894620921.8798828125,28,-22.1400000000,A01525,1,1552894607000
1552894620937.5000000000,28,-13.9200000000,A01525,1,1552894607000
1552894620953.1201171875,28,-6.8200000000,A01525,1,1552894607000
1552894620968.7500000000,28,-0.7100000000,A01525,1,1552894607000
1552894620984.3798828125,28,4.6600000000,A01525,1,1552894607000
1552894621000.0000000000,28,9.3800000000,A01525,1,1552894607000
1552894621015.6201171875,28,13.4100000000,A01525,1,1552894607000
1552894621031.2500000000,28,16.6700000000,A01525,1,1552894607000
1552894621046.8798828125,28,19.2400000000,A01525,1,1552894607000
1552894621062.5000000000,28,21.3200000000,A01525,1,1552894607000
1552894621078.1201171875,28,23.2000000000,A01525,1,1552894607000
1552894621093.7500000000,28,25.1000000000,A01525,1,1552894607000
1552894621109.3798828125,28,27.0100000000,A01525,1,1552894607000
1552894621125.0000000000,28,28.6800000000,A01525,1,1552894607000
1552894621140.6201171875,28,29.8000000000,A01525,1,1552894607000
1552894621156.2500000000,28,30.1500000000,A01525,1,1552894607000
1552894621171.8798828125,28,29.7500000000,A01525,1,1552894607000
1552894621187.5000000000,28,28.8600000000,A01525,1,1552894607000
1552894621203.1201171875,28,27.8600000000,A01525,1,1552894607000
1552894621218.7500000000,28,27.0500000000,A01525,1,1552894607000
1552894621234.3798828125,28,26.4800000000,A01525,1,1552894607000
1552894621250.0000000000,28,25.9900000000,A01525,1,1552894607000
1552894621265.6201171875,28,25.2800000000,A01525,1,1552894607000
1552894621281.2500000000,28,24.0400000000,A01525,1,1552894607000
1552894621296.8798828125,28,22.1600000000,A01525,1,1552894607000
1552894621312.5000000000,28,19.6900000000,A01525,1,1552894607000
1552894621328.1201171875,28,16.8600000000,A01525,1,1552894607000
1552894621343.7500000000,28,13.9600000000,A01525,1,1552894607000
1552894621359.3798828125,28,11.1800000000,A01525,1,1552894607000
1552894621375.0000000000,28,8.6300000000,A01525,1,1552894607000
1552894621390.6201171875,28,6.2600000000,A01525,1,1552894607000
1552894621406.2500000000,28,3.9400000000,A01525,1,1552894607000
1552894621421.8798828125,28,1.5400000000,A01525,1,1552894607000
1552894621437.5000000000,28,-1.0400000000,A01525,1,1552894607000
1552894621453.1201171875,28,-3.8300000000,A01525,1,1552894607000
1552894621468.7500000000,28,-6.7500000000,A01525,1,1552894607000
1552894621484.3798828125,28,-9.6900000000,A01525,1,1552894607000
1552894621500.0000000000,28,-12.4900000000,A01525,1,1552894607000
1552894621515.6201171875,28,-15.0400000000,A01525,1,1552894607000
1552894621531.2500000000,28,-17.2700000000,A01525,1,1552894607000
1552894621546.8798828125,28,-19.2300000000,A01525,1,1552894607000
1552894621562.5000000000,28,-21.1200000000,A01525,1,1552894607000
1552894621578.1201171875,28,-23.2600000000,A01525,1,1552894607000
1552894621593.7500000000,28,-26.0400000000,A01525,1,1552894607000
1552894621609.3798828125,28,-29.7600000000,A01525,1,1552894607000
1552894621625.0000000000,28,-34.4400000000,A01525,1,1552894607000
1552894621640.6201171875,28,-39.6100000000,A01525,1,1552894607000
1552894621656.2500000000,28,-44.3500000000,A01525,1,1552894607000
1552894621671.8798828125,28,-47.4600000000,A01525,1,1552894607000
1552894621687.5000000000,28,-47.8500000000,A01525,1,1552894607000
1552894621703.1201171875,28,-45.0000000000,A01525,1,1552894607000
1552894621718.7500000000,28,-39.1300000000,A01525,1,1552894607000
1552894621734.3798828125,28,-31.2100000000,A01525,1,1552894607000
1552894621750.0000000000,28,-22.5000000000,A01525,1,1552894607000
1552894621765.6201171875,28,-14.2200000000,A01525,1,1552894607000
1552894621781.2500000000,28,-7.0700000000,A01525,1,1552894607000
1552894621796.8798828125,28,-1.2000000000,A01525,1,1552894607000
1552894621812.5000000000,28,3.6700000000,A01525,1,1552894607000
1552894621828.1201171875,28,7.9000000000,A01525,1,1552894607000
1552894621843.7500000000,28,11.7300000000,A01525,1,1552894607000
1552894621859.3798828125,28,15.2100000000,A01525,1,1552894607000
1552894621875.0000000000,28,18.2100000000,A01525,1,1552894607000
1552894621890.6201171875,28,20.6300000000,A01525,1,1552894607000
1552894621906.2500000000,28,22.5000000000,A01525,1,1552894607000
1552894621921.8798828125,28,24.0000000000,A01525,1,1552894607000
1552894621937.5000000000,28,25.3400000000,A01525,1,1552894607000
1552894621953.1201171875,28,26.7000000000,A01525,1,1552894607000
1552894621968.7500000000,28,28.1000000000,A01525,1,1552894607000
1552894621984.3798828125,28,29.3800000000,A01525,1,1552894607000
1552894622000.0000000000,28,30.3400000000,A01525,1,1552894607000
1552894622015.6201171875,28,30.8500000000,A01525,1,1552894607000
1552894622031.2500000000,28,30.9400000000,A01525,1,1552894607000
1552894622046.8798828125,28,30.8100000000,A01525,1,1552894607000
1552894622062.5000000000,28,30.6800000000,A01525,1,1552894607000
1552894622078.1201171875,28,30.6900000000,A01525,1,1552894607000
1552894622093.7500000000,28,30.7400000000,A01525,1,1552894607000
1552894622109.3798828125,28,30.6000000000,A01525,1,1552894607000
1552894622125.0000000000,28,30.0100000000,A01525,1,1552894607000
1552894622140.6201171875,28,28.8100000000,A01525,1,1552894607000
1552894622156.2500000000,28,27.0800000000,A01525,1,1552894607000
1552894622171.8798828125,28,25.0700000000,A01525,1,1552894607000
1552894622187.5000000000,28,23.0300000000,A01525,1,1552894607000
1552894622203.1201171875,28,21.1900000000,A01525,1,1552894607000
1552894622218.7500000000,28,19.6000000000,A01525,1,1552894607000
1552894622234.3798828125,28,18.1600000000,A01525,1,1552894607000
1552894622250.0000000000,28,16.6700000000,A01525,1,1552894607000
1552894622265.6201171875,28,14.8800000000,A01525,1,1552894607000
1552894622281.2500000000,28,12.6100000000,A01525,1,1552894607000
1552894622296.8798828125,28,9.8100000000,A01525,1,1552894607000
1552894622312.5000000000,28,6.6400000000,A01525,1,1552894607000
1552894622328.1201171875,28,3.3400000000,A01525,1,1552894607000
1552894622343.7500000000,28,0.1800000000,A01525,1,1552894607000
1552894622359.3798828125,28,-2.7200000000,A01525,1,1552894607000
1552894622375.0000000000,28,-5.4200000000,A01525,1,1552894607000
1552894622390.6201171875,28,-8.1700000000,A01525,1,1552894607000
1552894622406.2500000000,28,-11.2600000000,A01525,1,1552894607000
1552894622421.8798828125,28,-14.8800000000,A01525,1,1552894607000
1552894622437.5000000000,28,-19.1000000000,A01525,1,1552894607000
1552894622453.1201171875,28,-23.8800000000,A01525,1,1552894607000
1552894622468.7500000000,28,-29.0300000000,A01525,1,1552894607000
1552894622484.3798828125,28,-34.2200000000,A01525,1,1552894607000
1552894622500.0000000000,28,-38.8700000000,A01525,1,1552894607000
1552894622515.6201171875,28,-42.2200000000,A01525,1,1552894607000
1552894622531.2500000000,28,-43.4600000000,A01525,1,1552894607000
1552894622546.8798828125,28,-42.0700000000,A01525,1,1552894607000
1552894622562.5000000000,28,-38.0800000000,A01525,1,1552894607000
1552894622578.1201171875,28,-32.1200000000,A01525,1,1552894607000
1552894622593.7500000000,28,-25.1800000000,A01525,1,1552894607000
1552894622609.3798828125,28,-18.2600000000,A01525,1,1552894607000
1552894622625.0000000000,28,-11.9800000000,A01525,1,1552894607000
1552894622640.6201171875,28,-6.4900000000,A01525,1,1552894607000
1552894622656.2500000000,28,-1.5900000000,A01525,1,1552894607000
1552894622671.8798828125,28,3.0200000000,A01525,1,1552894607000
1552894622687.5000000000,28,7.4800000000,A01525,1,1552894607000
1552894622703.1201171875,28,11.7400000000,A01525,1,1552894607000
1552894622718.7500000000,28,15.6000000000,A01525,1,1552894607000
1552894622734.3798828125,28,18.8600000000,A01525,1,1552894607000
1552894622750.0000000000,28,21.4400000000,A01525,1,1552894607000
1552894622765.6201171875,28,23.4000000000,A01525,1,1552894607000
1552894622781.2500000000,28,24.8900000000,A01525,1,1552894607000
1552894622796.8798828125,28,26.0600000000,A01525,1,1552894607000
1552894622812.5000000000,28,27.0400000000,A01525,1,1552894607000
1552894622828.1201171875,28,27.8900000000,A01525,1,1552894607000
1552894622843.7500000000,28,28.5900000000,A01525,1,1552894607000
1552894622859.3798828125,28,29.0200000000,A01525,1,1552894607000
1552894622875.0000000000,28,29.0700000000,A01525,1,1552894607000
1552894622890.6201171875,28,28.6900000000,A01525,1,1552894607000
1552894622906.2500000000,28,27.9100000000,A01525,1,1552894607000
1552894622921.8798828125,28,26.9400000000,A01525,1,1552894607000
1552894622937.5000000000,28,26.0100000000,A01525,1,1552894607000
1552894622953.1201171875,28,25.2500000000,A01525,1,1552894607000
1552894622968.7500000000,28,24.6500000000,A01525,1,1552894607000
1552894622984.3798828125,28,24.0500000000,A01525,1,1552894607000
1552894623000.0000000000,28,23.1700000000,A01525,1,1552894607000
1552894623015.6201171875,28,21.8100000000,A01525,1,1552894607000
1552894623031.2500000000,28,19.9600000000,A01525,1,1552894607000
1552894623046.8798828125,28,17.7400000000,A01525,1,1552894607000
1552894623062.5000000000,28,15.4600000000,A01525,1,1552894607000
1552894623078.1201171875,28,13.3700000000,A01525,1,1552894607000
1552894623093.7500000000,28,11.5900000000,A01525,1,1552894607000
1552894623109.3798828125,28,10.0600000000,A01525,1,1552894607000
1552894623125.0000000000,28,8.5600000000,A01525,1,1552894607000
1552894623140.6201171875,28,6.7900000000,A01525,1,1552894607000
1552894623156.2500000000,28,4.5800000000,A01525,1,1552894607000
1552894623171.8798828125,28,1.9400000000,A01525,1,1552894607000
1552894623187.5000000000,28,-0.8800000000,A01525,1,1552894607000
1552894623203.1201171875,28,-3.5300000000,A01525,1,1552894607000
1552894623218.7500000000,28,-5.6800000000,A01525,1,1552894607000
1552894623234.3798828125,28,-7.2700000000,A01525,1,1552894607000
1552894623250.0000000000,28,-8.4900000000,A01525,1,1552894607000
1552894623265.6201171875,28,-9.7900000000,A01525,1,1552894607000
1552894623281.2500000000,28,-11.6400000000,A01525,1,1552894607000
1552894623296.8798828125,28,-14.3100000000,A01525,1,1552894607000
1552894623312.5000000000,28,-17.8200000000,A01525,1,1552894607000
1552894623328.1201171875,28,-21.9200000000,A01525,1,1552894607000
1552894623343.7500000000,28,-26.2100000000,A01525,1,1552894607000
1552894623359.3798828125,28,-30.2000000000,A01525,1,1552894607000
1552894623375.0000000000,28,-33.3600000000,A01525,1,1552894607000
1552894623390.6201171875,28,-35.1700000000,A01525,1,1552894607000
1552894623406.2500000000,28,-35.1300000000,A01525,1,1552894607000
1552894623421.8798828125,28,-32.9200000000,A01525,1,1552894607000
1552894623437.5000000000,28,-28.5600000000,A01525,1,1552894607000
1552894623453.1201171875,28,-22.5100000000,A01525,1,1552894607000
1552894623468.7500000000,28,-15.6000000000,A01525,1,1552894607000
1552894623484.3798828125,28,-8.7800000000,A01525,1,1552894607000
1552894623500.0000000000,28,-2.8400000000,A01525,1,1552894607000
1552894623515.6201171875,28,1.8600000000,A01525,1,1552894607000
1552894623531.2500000000,28,5.3900000000,A01525,1,1552894607000
1552894623546.8798828125,28,8.1300000000,A01525,1,1552894607000
1552894623562.5000000000,28,10.4700000000,A01525,1,1552894607000
1552894623578.1201171875,28,12.6400000000,A01525,1,1552894607000
1552894623593.7500000000,28,14.6500000000,A01525,1,1552894607000
1552894623609.3798828125,28,16.3700000000,A01525,1,1552894607000
1552894623625.0000000000,28,17.7200000000,A01525,1,1552894607000
1552894623640.6201171875,28,18.6800000000,A01525,1,1552894607000
1552894623656.2500000000,28,19.3500000000,A01525,1,1552894607000
1552894623671.8798828125,28,19.8400000000,A01525,1,1552894607000
1552894623687.5000000000,28,20.2300000000,A01525,1,1552894607000
1552894623703.1201171875,28,20.5300000000,A01525,1,1552894607000
1552894623718.7500000000,28,20.7400000000,A01525,1,1552894607000
1552894623734.3798828125,28,20.8400000000,A01525,1,1552894607000
1552894623750.0000000000,28,20.8500000000,A01525,1,1552894607000
1552894623765.6201171875,28,20.7800000000,A01525,1,1552894607000
1552894623781.2500000000,28,20.5900000000,A01525,1,1552894607000
1552894623796.8798828125,28,20.1900000000,A01525,1,1552894607000
1552894623812.5000000000,28,19.4500000000,A01525,1,1552894607000
1552894623828.1201171875,28,18.3500000000,A01525,1,1552894607000
1552894623843.7500000000,28,16.9000000000,A01525,1,1552894607000
1552894623859.3798828125,28,15.2400000000,A01525,1,1552894607000
1552894623875.0000000000,28,13.5000000000,A01525,1,1552894607000
1552894623890.6201171875,28,11.7600000000,A01525,1,1552894607000
1552894623906.2500000000,28,10.0000000000,A01525,1,1552894607000
1552894623921.8798828125,28,8.1500000000,A01525,1,1552894607000
1552894623937.5000000000,28,6.1600000000,A01525,1,1552894607000
1552894623953.1201171875,28,4.0700000000,A01525,1,1552894607000
1552894623968.7500000000,28,2.0200000000,A01525,1,1552894607000
1552894623984.3798828125,28,0.0900000000,A01525,1,1552894607000
1552894624000.0000000000,28,-1.6500000000,A01525,1,1552894607000
1552894624015.6201171875,28,-3.2600000000,A01525,1,1552894607000
1552894624031.2500000000,28,-4.8500000000,A01525,1,1552894607000
1552894624046.8798828125,28,-6.4900000000,A01525,1,1552894607000
1552894624062.5000000000,28,-8.2000000000,A01525,1,1552894607000
1552894624078.1201171875,28,-9.9600000000,A01525,1,1552894607000
1552894624093.7500000000,28,-11.7500000000,A01525,1,1552894607000
1552894624109.3798828125,28,-13.6500000000,A01525,1,1552894607000
1552894624125.0000000000,28,-15.8900000000,A01525,1,1552894607000
1552894624140.6201171875,28,-18.6900000000,A01525,1,1552894607000
1552894624156.2500000000,28,-22.1300000000,A01525,1,1552894607000
1552894624171.8798828125,28,-26.0200000000,A01525,1,1552894607000
1552894624187.5000000000,28,-29.8200000000,A01525,1,1552894607000
1552894624203.1201171875,28,-32.7400000000,A01525,1,1552894607000
1552894624218.7500000000,28,-34.0200000000,A01525,1,1552894607000
1552894624234.3798828125,28,-33.1400000000,A01525,1,1552894607000
1552894624250.0000000000,28,-30.0700000000,A01525,1,1552894607000
1552894624265.6201171875,28,-25.2600000000,A01525,1,1552894607000
1552894624281.2500000000,28,-19.4700000000,A01525,1,1552894607000
1552894624296.8798828125,28,-13.5400000000,A01525,1,1552894607000
1552894624312.5000000000,28,-8.1200000000,A01525,1,1552894607000
1552894624328.1201171875,28,-3.5200000000,A01525,1,1552894607000
1552894624343.7500000000,28,0.2300000000,A01525,1,1552894607000
1552894624359.3798828125,28,3.2700000000,A01525,1,1552894607000
1552894624375.0000000000,28,5.7900000000,A01525,1,1552894607000
1552894624390.6201171875,28,7.8900000000,A01525,1,1552894607000
1552894624406.2500000000,28,9.6200000000,A01525,1,1552894607000
1552894624421.8798828125,28,10.9900000000,A01525,1,1552894607000
1552894624437.5000000000,28,12.0500000000,A01525,1,1552894607000
1552894624453.1201171875,28,12.8400000000,A01525,1,1552894607000
1552894624468.7500000000,28,13.3800000000,A01525,1,1552894607000
1552894624484.3798828125,28,13.6600000000,A01525,1,1552894607000
1552894624500.0000000000,28,13.6300000000,A01525,1,1552894607000
1552894624515.6201171875,28,13.2800000000,A01525,1,1552894607000
1552894624531.2500000000,28,12.6200000000,A01525,1,1552894607000
1552894624546.8798828125,28,11.7900000000,A01525,1,1552894607000
1552894624562.5000000000,28,10.9400000000,A01525,1,1552894607000
1552894624578.1201171875,28,10.1900000000,A01525,1,1552894607000
1552894624593.7500000000,28,9.5700000000,A01525,1,1552894607000
1552894624609.3798828125,28,8.9500000000,A01525,1,1552894607000
1552894624625.0000000000,28,8.1200000000,A01525,1,1552894607000
1552894624640.6201171875,28,6.9200000000,A01525,1,1552894607000
1552894624656.2500000000,28,5.3200000000,A01525,1,1552894607000
1552894624671.8798828125,28,3.4400000000,A01525,1,1552894607000
1552894624687.5000000000,28,1.5000000000,A01525,1,1552894607000
1552894624703.1201171875,28,-0.3400000000,A01525,1,1552894607000
1552894624718.7500000000,28,-1.9800000000,A01525,1,1552894607000
1552894624734.3798828125,28,-3.3500000000,A01525,1,1552894607000
1552894624750.0000000000,28,-4.4600000000,A01525,1,1552894607000
1552894624765.6201171875,28,-5.3300000000,A01525,1,1552894607000
1552894624781.2500000000,28,-6.1200000000,A01525,1,1552894607000
1552894624796.8798828125,28,-7.1100000000,A01525,1,1552894607000
1552894624812.5000000000,28,-8.6900000000,A01525,1,1552894607000
1552894624828.1201171875,28,-11.1100000000,A01525,1,1552894607000
1552894624843.7500000000,28,-14.2800000000,A01525,1,1552894607000
1552894624859.3798828125,28,-17.7000000000,A01525,1,1552894607000
1552894624875.0000000000,28,-20.5500000000,A01525,1,1552894607000
1552894624890.6201171875,28,-22.0700000000,A01525,1,1552894607000
1552894624906.2500000000,28,-21.8900000000,A01525,1,1552894607000
1552894624921.8798828125,28,-20.2600000000,A01525,1,1552894607000
1552894624937.5000000000,28,-17.9200000000,A01525,1,1552894607000
1552894624953.1201171875,28,-15.8000000000,A01525,1,1552894607000
1552894624968.7500000000,28,-14.6900000000,A01525,1,1552894607000
1552894624984.3798828125,28,-14.9400000000,A01525,1,1552894607000
1552894625000.0000000000,28,-16.4800000000,A01525,1,1552894607000
1552894625015.6201171875,28,-18.8800000000,A01525,1,1552894607000
1552894625031.2500000000,28,-21.5400000000,A01525,1,1552894607000
1552894625046.8798828125,28,-23.7900000000,A01525,1,1552894607000
1552894625062.5000000000,28,-24.9800000000,A01525,1,1552894607000
1552894625078.1201171875,28,-24.5000000000,A01525,1,1552894607000
1552894625093.7500000000,28,-21.9400000000,A01525,1,1552894607000
1552894625109.3798828125,28,-17.0600000000,A01525,1,1552894607000
1552894625125.0000000000,28,-9.9300000000,A01525,1,1552894607000
1552894625140.6201171875,28,-0.8100000000,A01525,1,1552894607000
1552894625156.2500000000,28,9.7800000000,A01525,1,1552894607000
1552894625171.8798828125,28,21.2100000000,A01525,1,1552894607000
1552894625187.5000000000,28,32.7400000000,A01525,1,1552894607000
1552894625203.1201171875,28,43.6100000000,A01525,1,1552894607000
1552894625218.7500000000,28,53.1000000000,A01525,1,1552894607000
1552894625234.3798828125,28,60.6500000000,A01525,1,1552894607000
1552894625250.0000000000,28,65.8800000000,A01525,1,1552894607000
1552894625265.6201171875,28,68.6900000000,A01525,1,1552894607000
1552894625281.2500000000,28,69.2500000000,A01525,1,1552894607000
1552894625296.8798828125,28,67.9200000000,A01525,1,1552894607000
1552894625312.5000000000,28,65.1300000000,A01525,1,1552894607000
1552894625328.1201171875,28,61.3400000000,A01525,1,1552894607000
1552894625343.7500000000,28,56.8700000000,A01525,1,1552894607000
1552894625359.3798828125,28,51.9500000000,A01525,1,1552894607000
1552894625375.0000000000,28,46.6800000000,A01525,1,1552894607000
1552894625390.6201171875,28,41.1400000000,A01525,1,1552894607000
1552894625406.2500000000,28,35.4000000000,A01525,1,1552894607000
1552894625421.8798828125,28,29.6500000000,A01525,1,1552894607000
1552894625437.5000000000,28,24.2000000000,A01525,1,1552894607000
1552894625453.1201171875,28,19.3900000000,A01525,1,1552894607000
1552894625468.7500000000,28,15.5200000000,A01525,1,1552894607000
1552894625484.3798828125,28,12.7000000000,A01525,1,1552894607000
1552894625500.0000000000,28,10.7900000000,A01525,1,1552894607000
1552894625515.6201171875,28,9.4400000000,A01525,1,1552894607000
1552894625531.2500000000,28,8.2200000000,A01525,1,1552894607000
1552894625546.8798828125,28,6.7500000000,A01525,1,1552894607000
1552894625562.5000000000,28,4.8900000000,A01525,1,1552894607000
1552894625578.1201171875,28,2.7200000000,A01525,1,1552894607000
1552894625593.7500000000,28,0.5100000000,A01525,1,1552894607000
1552894625609.3798828125,28,-1.4600000000,A01525,1,1552894607000
1552894625625.0000000000,28,-3.0600000000,A01525,1,1552894607000
1552894625640.6201171875,28,-4.3600000000,A01525,1,1552894607000
1552894625656.2500000000,28,-5.6700000000,A01525,1,1552894607000
1552894625671.8798828125,28,-7.3300000000,A01525,1,1552894607000
1552894625687.5000000000,28,-9.6400000000,A01525,1,1552894607000
1552894625703.1201171875,28,-12.5700000000,A01525,1,1552894607000
1552894625718.7500000000,28,-15.8300000000,A01525,1,1552894607000
1552894625734.3798828125,28,-18.9300000000,A01525,1,1552894607000
1552894625750.0000000000,28,-21.3600000000,A01525,1,1552894607000
1552894625765.6201171875,28,-22.9300000000,A01525,1,1552894607000
1552894625781.2500000000,28,-23.8100000000,A01525,1,1552894607000
1552894625796.8798828125,28,-24.5100000000,A01525,1,1552894607000
1552894625812.5000000000,28,-25.6300000000,A01525,1,1552894607000
1552894625828.1201171875,28,-27.4900000000,A01525,1,1552894607000
1552894625843.7500000000,28,-29.8900000000,A01525,1,1552894607000
1552894625859.3798828125,28,-32.0900000000,A01525,1,1552894607000
1552894625875.0000000000,28,-32.9600000000,A01525,1,1552894607000
1552894625890.6201171875,28,-31.4000000000,A01525,1,1552894607000
1552894625906.2500000000,28,-26.6600000000,A01525,1,1552894607000
1552894625921.8798828125,28,-18.5500000000,A01525,1,1552894607000
1552894625937.5000000000,28,-7.5000000000,A01525,1,1552894607000
1552894625953.1201171875,28,5.4700000000,A01525,1,1552894607000
1552894625968.7500000000,28,18.8300000000,A01525,1,1552894607000
1552894625984.3798828125,28,30.7500000000,A01525,1,1552894607000
1552894626000.0000000000,28,39.4700000000,A01525,1,1552894607000
1552894626015.6201171875,28,43.7600000000,A01525,1,1552894607000
1552894626031.2500000000,28,43.3700000000,A01525,1,1552894607000
1552894626046.8798828125,28,39.2000000000,A01525,1,1552894607000
1552894626062.5000000000,28,32.9400000000,A01525,1,1552894607000
1552894626078.1201171875,28,26.4100000000,A01525,1,1552894607000
1552894626093.7500000000,28,20.8700000000,A01525,1,1552894607000
1552894626109.3798828125,28,16.6400000000,A01525,1,1552894607000
1552894626125.0000000000,28,13.2100000000,A01525,1,1552894607000
1552894626140.6201171875,28,9.7900000000,A01525,1,1552894607000
1552894626156.2500000000,28,5.7800000000,A01525,1,1552894607000
1552894626171.8798828125,28,1.1500000000,A01525,1,1552894607000
1552894626187.5000000000,28,-3.7200000000,A01525,1,1552894607000
1552894626203.1201171875,28,-8.3700000000,A01525,1,1552894607000
1552894626218.7500000000,28,-12.5700000000,A01525,1,1552894607000
1552894626234.3798828125,28,-16.4400000000,A01525,1,1552894607000
1552894626250.0000000000,28,-20.2200000000,A01525,1,1552894607000
1552894626265.6201171875,28,-24.0100000000,A01525,1,1552894607000
1552894626281.2500000000,28,-27.6300000000,A01525,1,1552894607000
1552894626296.8798828125,28,-30.6800000000,A01525,1,1552894607000
1552894626312.5000000000,28,-32.7500000000,A01525,1,1552894607000
1552894626328.1201171875,28,-33.6800000000,A01525,1,1552894607000
1552894626343.7500000000,28,-33.6500000000,A01525,1,1552894607000
1552894626359.3798828125,28,-33.1900000000,A01525,1,1552894607000
1552894626375.0000000000,28,-32.8700000000,A01525,1,1552894607000
1552894626390.6201171875,28,-33.0800000000,A01525,1,1552894607000
1552894626406.2500000000,28,-33.7900000000,A01525,1,1552894607000
1552894626421.8798828125,28,-34.6200000000,A01525,1,1552894607000
1552894626437.5000000000,28,-35.0300000000,A01525,1,1552894607000
1552894626453.1201171875,28,-34.5800000000,A01525,1,1552894607000
1552894626468.7500000000,28,-33.2400000000,A01525,1,1552894607000
1552894626484.3798828125,28,-31.3400000000,A01525,1,1552894607000
1552894626500.0000000000,28,-29.3400000000,A01525,1,1552894607000
1552894626515.6201171875,28,-27.6500000000,A01525,1,1552894607000
1552894626531.2500000000,28,-26.4600000000,A01525,1,1552894607000
1552894626546.8798828125,28,-25.6300000000,A01525,1,1552894607000
1552894626562.5000000000,28,-24.9600000000,A01525,1,1552894607000
1552894626578.1201171875,28,-24.2400000000,A01525,1,1552894607000
1552894626593.7500000000,28,-23.4600000000,A01525,1,1552894607000
1552894626609.3798828125,28,-22.8100000000,A01525,1,1552894607000
1552894626625.0000000000,28,-22.6300000000,A01525,1,1552894607000
1552894626640.6201171875,28,-23.2700000000,A01525,1,1552894607000
1552894626656.2500000000,28,-24.9000000000,A01525,1,1552894607000
1552894626671.8798828125,28,-27.3700000000,A01525,1,1552894607000
1552894626687.5000000000,28,-30.1700000000,A01525,1,1552894607000
1552894626703.1201171875,28,-32.4900000000,A01525,1,1552894607000
1552894626718.7500000000,28,-33.4700000000,A01525,1,1552894607000
1552894626734.3798828125,28,-32.4900000000,A01525,1,1552894607000
1552894626750.0000000000,28,-29.3600000000,A01525,1,1552894607000
1552894626765.6201171875,28,-24.4600000000,A01525,1,1552894607000
1552894626781.2500000000,28,-18.5400000000,A01525,1,1552894607000
1552894626796.8798828125,28,-12.5000000000,A01525,1,1552894607000
1552894626812.5000000000,28,-7.0400000000,A01525,1,1552894607000
1552894626828.1201171875,28,-2.5600000000,A01525,1,1552894607000
1552894626843.7500000000,28,0.9200000000,A01525,1,1552894607000
1552894626859.3798828125,28,3.6000000000,A01525,1,1552894607000
1552894626875.0000000000,28,5.7400000000,A01525,1,1552894607000
1552894626890.6201171875,28,7.5700000000,A01525,1,1552894607000
1552894626906.2500000000,28,9.2100000000,A01525,1,1552894607000
1552894626921.8798828125,28,10.7500000000,A01525,1,1552894607000
1552894626937.5000000000,28,12.2300000000,A01525,1,1552894607000
1552894626953.1201171875,28,13.6600000000,A01525,1,1552894607000
1552894626968.7500000000,28,15.0100000000,A01525,1,1552894607000
1552894626984.3798828125,28,16.2100000000,A01525,1,1552894607000
1552894627000.0000000000,28,17.1200000000,A01525,1,1552894607000
1552894627015.6201171875,28,17.5700000000,A01525,1,1552894607000
1552894627031.2500000000,28,17.3500000000,A01525,1,1552894607000
1552894627046.8798828125,28,16.4200000000,A01525,1,1552894607000
1552894627062.5000000000,28,14.9000000000,A01525,1,1552894607000
1552894627078.1201171875,28,13.1700000000,A01525,1,1552894607000
1552894627093.7500000000,28,11.8100000000,A01525,1,1552894607000
1552894627109.3798828125,28,11.3700000000,A01525,1,1552894607000
1552894627125.0000000000,28,12.2000000000,A01525,1,1552894607000
1552894627140.6201171875,28,14.1900000000,A01525,1,1552894607000
1552894627156.2500000000,28,16.8500000000,A01525,1,1552894607000
1552894627171.8798828125,28,19.5000000000,A01525,1,1552894607000
1552894627187.5000000000,28,21.5700000000,A01525,1,1552894607000
1552894627203.1201171875,28,22.7900000000,A01525,1,1552894607000
1552894627218.7500000000,28,23.2400000000,A01525,1,1552894607000
1552894627234.3798828125,28,23.1600000000,A01525,1,1552894607000
1552894627250.0000000000,28,22.6800000000,A01525,1,1552894607000
1552894627265.6201171875,28,21.7500000000,A01525,1,1552894607000
1552894627281.2500000000,28,20.2200000000,A01525,1,1552894607000
1552894627296.8798828125,28,17.9900000000,A01525,1,1552894607000
1552894627312.5000000000,28,15.1700000000,A01525,1,1552894607000
1552894627328.1201171875,28,12.0600000000,A01525,1,1552894607000
1552894627343.7500000000,28,9.0100000000,A01525,1,1552894607000
1552894627359.3798828125,28,6.2300000000,A01525,1,1552894607000
1552894627375.0000000000,28,3.7300000000,A01525,1,1552894607000
1552894627390.6201171875,28,1.3900000000,A01525,1,1552894607000
1552894627406.2500000000,28,-0.9300000000,A01525,1,1552894607000
1552894627421.8798828125,28,-3.3200000000,A01525,1,1552894607000
1552894627437.5000000000,28,-5.8700000000,A01525,1,1552894607000
1552894627453.1201171875,28,-8.6600000000,A01525,1,1552894607000
1552894627468.7500000000,28,-11.8800000000,A01525,1,1552894607000
1552894627484.3798828125,28,-15.6800000000,A01525,1,1552894607000
1552894627500.0000000000,28,-20.0500000000,A01525,1,1552894607000
1552894627515.6201171875,28,-24.7200000000,A01525,1,1552894607000
1552894627531.2500000000,28,-29.1000000000,A01525,1,1552894607000
1552894627546.8798828125,28,-32.4500000000,A01525,1,1552894607000
1552894627562.5000000000,28,-34.1400000000,A01525,1,1552894607000
1552894627578.1201171875,28,-33.8500000000,A01525,1,1552894607000
1552894627593.7500000000,28,-31.7000000000,A01525,1,1552894607000
1552894627609.3798828125,28,-28.2000000000,A01525,1,1552894607000
1552894627625.0000000000,28,-24.0500000000,A01525,1,1552894607000
1552894627640.6201171875,28,-19.8800000000,A01525,1,1552894607000
1552894627656.2500000000,28,-16.1200000000,A01525,1,1552894607000
1552894627671.8798828125,28,-12.9200000000,A01525,1,1552894607000
1552894627687.5000000000,28,-10.2300000000,A01525,1,1552894607000
1552894627703.1201171875,28,-7.9300000000,A01525,1,1552894607000
1552894627718.7500000000,28,-5.9300000000,A01525,1,1552894607000
1552894627734.3798828125,28,-4.2500000000,A01525,1,1552894607000
1552894627750.0000000000,28,-2.9400000000,A01525,1,1552894607000
1552894627765.6201171875,28,-2.0000000000,A01525,1,1552894607000
1552894627781.2500000000,28,-1.2500000000,A01525,1,1552894607000
1552894627796.8798828125,28,-0.3400000000,A01525,1,1552894607000
1552894627812.5000000000,28,1.1600000000,A01525,1,1552894607000
1552894627828.1201171875,28,3.5000000000,A01525,1,1552894607000
1552894627843.7500000000,28,6.7100000000,A01525,1,1552894607000
1552894627859.3798828125,28,10.4300000000,A01525,1,1552894607000
1552894627875.0000000000,28,14.1100000000,A01525,1,1552894607000
1552894627890.6201171875,28,17.1500000000,A01525,1,1552894607000
1552894627906.2500000000,28,19.1700000000,A01525,1,1552894607000
1552894627921.8798828125,28,20.0900000000,A01525,1,1552894607000
1552894627937.5000000000,28,20.0500000000,A01525,1,1552894607000
1552894627953.1201171875,28,19.3400000000,A01525,1,1552894607000
1552894627968.7500000000,28,18.2200000000,A01525,1,1552894607000
1552894627984.3798828125,28,16.8900000000,A01525,1,1552894607000
1552894628000.0000000000,28,15.4900000000,A01525,1,1552894607000
1552894628015.6201171875,28,14.1700000000,A01525,1,1552894607000
1552894628031.2500000000,28,13.0800000000,A01525,1,1552894607000
1552894628046.8798828125,28,12.3200000000,A01525,1,1552894607000
1552894628062.5000000000,28,11.8800000000,A01525,1,1552894607000
1552894628078.1201171875,28,11.5900000000,A01525,1,1552894607000
1552894628093.7500000000,28,11.1700000000,A01525,1,1552894607000
1552894628109.3798828125,28,10.3200000000,A01525,1,1552894607000
1552894628125.0000000000,28,8.8900000000,A01525,1,1552894607000
1552894628140.6201171875,28,6.9300000000,A01525,1,1552894607000
1552894628156.2500000000,28,4.6500000000,A01525,1,1552894607000
1552894628171.8798828125,28,2.3800000000,A01525,1,1552894607000
1552894628187.5000000000,28,0.2900000000,A01525,1,1552894607000
1552894628203.1201171875,28,-1.5900000000,A01525,1,1552894607000
1552894628218.7500000000,28,-3.4400000000,A01525,1,1552894607000
1552894628234.3798828125,28,-5.5600000000,A01525,1,1552894607000
1552894628250.0000000000,28,-8.2100000000,A01525,1,1552894607000
1552894628265.6201171875,28,-11.4500000000,A01525,1,1552894607000
1552894628281.2500000000,28,-15.1600000000,A01525,1,1552894607000
1552894628296.8798828125,28,-19.0500000000,A01525,1,1552894607000
1552894628312.5000000000,28,-22.6100000000,A01525,1,1552894607000
1552894628328.1201171875,28,-25.3000000000,A01525,1,1552894607000
1552894628343.7500000000,28,-26.5300000000,A01525,1,1552894607000
1552894628359.3798828125,28,-25.8500000000,A01525,1,1552894607000
1552894628375.0000000000,28,-23.1300000000,A01525,1,1552894607000
1552894628390.6201171875,28,-18.6200000000,A01525,1,1552894607000
1552894628406.2500000000,28,-12.9500000000,A01525,1,1552894607000
1552894628421.8798828125,28,-6.9900000000,A01525,1,1552894607000
1552894628437.5000000000,28,-1.5300000000,A01525,1,1552894607000
1552894628453.1201171875,28,2.9000000000,A01525,1,1552894607000
1552894628468.7500000000,28,6.2400000000,A01525,1,1552894607000
1552894628484.3798828125,28,8.7500000000,A01525,1,1552894607000
1552894628500.0000000000,28,10.8800000000,A01525,1,1552894607000
1552894628515.6201171875,28,13.0200000000,A01525,1,1552894607000
1552894628531.2500000000,28,15.3600000000,A01525,1,1552894607000
1552894628546.8798828125,28,17.9700000000,A01525,1,1552894607000
1552894628562.5000000000,28,20.7500000000,A01525,1,1552894607000
1552894628578.1201171875,28,23.6000000000,A01525,1,1552894607000
1552894628593.7500000000,28,26.3900000000,A01525,1,1552894607000
1552894628609.3798828125,28,28.9300000000,A01525,1,1552894607000
1552894628625.0000000000,28,30.9800000000,A01525,1,1552894607000
1552894628640.6201171875,28,32.2800000000,A01525,1,1552894607000
1552894628656.2500000000,28,32.5500000000,A01525,1,1552894607000
1552894628671.8798828125,28,31.7100000000,A01525,1,1552894607000
1552894628687.5000000000,28,29.8300000000,A01525,1,1552894607000
1552894628703.1201171875,28,27.1400000000,A01525,1,1552894607000
1552894628718.7500000000,28,23.9600000000,A01525,1,1552894607000
1552894628734.3798828125,28,20.5400000000,A01525,1,1552894607000
1552894628750.0000000000,28,16.9700000000,A01525,1,1552894607000
1552894628765.6201171875,28,13.1800000000,A01525,1,1552894607000
1552894628781.2500000000,28,8.9900000000,A01525,1,1552894607000
1552894628796.8798828125,28,4.2800000000,A01525,1,1552894607000
1552894628812.5000000000,28,-0.8400000000,A01525,1,1552894607000
1552894628828.1201171875,28,-6.0000000000,A01525,1,1552894607000
1552894628843.7500000000,28,-10.5900000000,A01525,1,1552894607000
1552894628859.3798828125,28,-13.9200000000,A01525,1,1552894607000
1552894628875.0000000000,28,-15.4800000000,A01525,1,1552894607000
1552894628890.6201171875,28,-15.1100000000,A01525,1,1552894607000
1552894628906.2500000000,28,-13.0900000000,A01525,1,1552894607000
1552894628921.8798828125,28,-10.0400000000,A01525,1,1552894607000
1552894628937.5000000000,28,-6.7800000000,A01525,1,1552894607000
1552894628953.1201171875,28,-4.0300000000,A01525,1,1552894607000
1552894628968.7500000000,28,-2.3000000000,A01525,1,1552894607000
1552894628984.3798828125,28,-1.7100000000,A01525,1,1552894607000
1552894629000.0000000000,28,-2.1000000000,A01525,1,1552894607000
1552894629015.6201171875,28,-3.0600000000,A01525,1,1552894607000
1552894629031.2500000000,28,-4.1500000000,A01525,1,1552894607000
1552894629046.8798828125,28,-4.9900000000,A01525,1,1552894607000
1552894629062.5000000000,28,-5.4800000000,A01525,1,1552894607000
1552894629078.1201171875,28,-5.8500000000,A01525,1,1552894607000
1552894629093.7500000000,28,-6.5500000000,A01525,1,1552894607000
1552894629109.3798828125,28,-8.0900000000,A01525,1,1552894607000
1552894629125.0000000000,28,-10.7300000000,A01525,1,1552894607000
1552894629140.6201171875,28,-14.2500000000,A01525,1,1552894607000
1552894629156.2500000000,28,-17.9700000000,A01525,1,1552894607000
1552894629171.8798828125,28,-20.9600000000,A01525,1,1552894607000
1552894629187.5000000000,28,-22.3600000000,A01525,1,1552894607000
1552894629203.1201171875,28,-21.7600000000,A01525,1,1552894607000
1552894629218.7500000000,28,-19.2800000000,A01525,1,1552894607000
1552894629234.3798828125,28,-15.4700000000,A01525,1,1552894607000
1552894629250.0000000000,28,-11.0500000000,A01525,1,1552894607000
1552894629265.6201171875,28,-6.6100000000,A01525,1,1552894607000
1552894629281.2500000000,28,-2.4700000000,A01525,1,1552894607000
1552894629296.8798828125,28,1.2300000000,A01525,1,1552894607000
1552894629312.5000000000,28,4.5400000000,A01525,1,1552894607000
1552894629328.1201171875,28,7.4700000000,A01525,1,1552894607000
1552894629343.7500000000,28,10.0200000000,A01525,1,1552894607000
1552894629359.3798828125,28,12.1200000000,A01525,1,1552894607000
1552894629375.0000000000,28,13.7000000000,A01525,1,1552894607000
1552894629390.6201171875,28,14.6500000000,A01525,1,1552894607000
1552894629406.2500000000,28,14.9000000000,A01525,1,1552894607000
1552894629421.8798828125,28,14.3900000000,A01525,1,1552894607000
1552894629437.5000000000,28,13.1100000000,A01525,1,1552894607000
1552894629453.1201171875,28,11.2200000000,A01525,1,1552894607000
1552894629468.7500000000,28,8.9600000000,A01525,1,1552894607000
1552894629484.3798828125,28,6.6800000000,A01525,1,1552894607000
1552894629500.0000000000,28,4.6800000000,A01525,1,1552894607000
1552894629515.6201171875,28,3.1700000000,A01525,1,1552894607000
1552894629531.2500000000,28,2.1900000000,A01525,1,1552894607000
1552894629546.8798828125,28,1.6300000000,A01525,1,1552894607000
1552894629562.5000000000,28,1.2800000000,A01525,1,1552894607000
1552894629578.1201171875,28,0.9000000000,A01525,1,1552894607000
1552894629593.7500000000,28,0.3000000000,A01525,1,1552894607000
1552894629609.3798828125,28,-0.6500000000,A01525,1,1552894607000
1552894629625.0000000000,28,-1.9800000000,A01525,1,1552894607000
1552894629640.6201171875,28,-3.6400000000,A01525,1,1552894607000
1552894629656.2500000000,28,-5.4600000000,A01525,1,1552894607000
1552894629671.8798828125,28,-7.1700000000,A01525,1,1552894607000
1552894629687.5000000000,28,-8.5000000000,A01525,1,1552894607000
1552894629703.1201171875,28,-9.1900000000,A01525,1,1552894607000
1552894629718.7500000000,28,-9.1300000000,A01525,1,1552894607000
1552894629734.3798828125,28,-8.4200000000,A01525,1,1552894607000
1552894629750.0000000000,28,-7.3300000000,A01525,1,1552894607000
1552894629765.6201171875,28,-6.1900000000,A01525,1,1552894607000
1552894629781.2500000000,28,-5.3400000000,A01525,1,1552894607000
1552894629796.8798828125,28,-4.9200000000,A01525,1,1552894607000
1552894629812.5000000000,28,-4.8800000000,A01525,1,1552894607000
1552894629828.1201171875,28,-5.0700000000,A01525,1,1552894607000
1552894629843.7500000000,28,-5.2400000000,A01525,1,1552894607000
1552894629859.3798828125,28,-5.1800000000,A01525,1,1552894607000
1552894629875.0000000000,28,-4.7900000000,A01525,1,1552894607000
1552894629890.6201171875,28,-4.1200000000,A01525,1,1552894607000
1552894629906.2500000000,28,-3.3800000000,A01525,1,1552894607000
1552894629921.8798828125,28,-2.9400000000,A01525,1,1552894607000
1552894629937.5000000000,28,-3.1600000000,A01525,1,1552894607000
1552894629953.1201171875,28,-4.2700000000,A01525,1,1552894607000
1552894629968.7500000000,28,-6.1300000000,A01525,1,1552894607000
1552894629984.3798828125,28,-8.2400000000,A01525,1,1552894607000
1552894630000.0000000000,28,-9.8400000000,A01525,1,1552894607000
1552894630015.6201171875,28,-10.1700000000,A01525,1,1552894607000
1552894630031.2500000000,28,-8.8500000000,A01525,1,1552894607000
1552894630046.8798828125,28,-6.0000000000,A01525,1,1552894607000
1552894630062.5000000000,28,-2.2800000000,A01525,1,1552894607000
1552894630078.1201171875,28,1.4700000000,A01525,1,1552894607000
1552894630093.7500000000,28,4.5300000000,A01525,1,1552894607000
1552894630109.3798828125,28,6.5900000000,A01525,1,1552894607000
1552894630125.0000000000,28,7.7100000000,A01525,1,1552894607000
1552894630140.6201171875,28,8.2200000000,A01525,1,1552894607000
1552894630156.2500000000,28,8.4600000000,A01525,1,1552894607000
1552894630171.8798828125,28,8.6500000000,A01525,1,1552894607000
1552894630187.5000000000,28,8.8300000000,A01525,1,1552894607000
1552894630203.1201171875,28,8.9500000000,A01525,1,1552894607000
1552894630218.7500000000,28,8.9600000000,A01525,1,1552894607000
1552894630234.3798828125,28,8.8500000000,A01525,1,1552894607000
1552894630250.0000000000,28,8.6600000000,A01525,1,1552894607000
1552894630265.6201171875,28,8.4200000000,A01525,1,1552894607000
1552894630281.2500000000,28,8.1000000000,A01525,1,1552894607000
1552894630296.8798828125,28,7.6400000000,A01525,1,1552894607000
1552894630312.5000000000,28,6.9400000000,A01525,1,1552894607000
1552894630328.1201171875,28,5.9500000000,A01525,1,1552894607000
1552894630343.7500000000,28,4.6900000000,A01525,1,1552894607000
1552894630359.3798828125,28,3.2900000000,A01525,1,1552894607000
1552894630375.0000000000,28,1.9700000000,A01525,1,1552894607000
1552894630390.6201171875,28,0.8700000000,A01525,1,1552894607000
1552894630406.2500000000,28,0.0900000000,A01525,1,1552894607000
1552894630421.8798828125,28,-0.4500000000,A01525,1,1552894607000
1552894630437.5000000000,28,-0.9300000000,A01525,1,1552894607000
1552894630453.1201171875,28,-1.5600000000,A01525,1,1552894607000
1552894630468.7500000000,28,-2.4500000000,A01525,1,1552894607000
1552894630484.3798828125,28,-3.5800000000,A01525,1,1552894607000
1552894630500.0000000000,28,-4.8600000000,A01525,1,1552894607000
1552894630515.6201171875,28,-6.1400000000,A01525,1,1552894607000
1552894630531.2500000000,28,-7.3500000000,A01525,1,1552894607000
1552894630546.8798828125,28,-8.4700000000,A01525,1,1552894607000
1552894630562.5000000000,28,-9.5200000000,A01525,1,1552894607000
1552894630578.1201171875,28,-10.4900000000,A01525,1,1552894607000
1552894630593.7500000000,28,-11.4300000000,A01525,1,1552894607000
1552894630609.3798828125,28,-12.4000000000,A01525,1,1552894607000
1552894630625.0000000000,28,-13.4500000000,A01525,1,1552894607000
1552894630640.6201171875,28,-14.6000000000,A01525,1,1552894607000
1552894630656.2500000000,28,-15.8000000000,A01525,1,1552894607000
1552894630671.8798828125,28,-16.9500000000,A01525,1,1552894607000
1552894630687.5000000000,28,-17.9800000000,A01525,1,1552894607000
1552894630703.1201171875,28,-18.9200000000,A01525,1,1552894607000
1552894630718.7500000000,28,-19.9400000000,A01525,1,1552894607000
1552894630734.3798828125,28,-21.2800000000,A01525,1,1552894607000
1552894630750.0000000000,28,-23.0800000000,A01525,1,1552894607000
1552894630765.6201171875,28,-25.2300000000,A01525,1,1552894607000
1552894630781.2500000000,28,-27.2800000000,A01525,1,1552894607000
1552894630796.8798828125,28,-28.5700000000,A01525,1,1552894607000
1552894630812.5000000000,28,-28.4700000000,A01525,1,1552894607000
1552894630828.1201171875,28,-26.6500000000,A01525,1,1552894607000
1552894630843.7500000000,28,-23.2800000000,A01525,1,1552894607000
1552894630859.3798828125,28,-18.9100000000,A01525,1,1552894607000
1552894630875.0000000000,28,-14.3000000000,A01525,1,1552894607000
1552894630890.6201171875,28,-10.1200000000,A01525,1,1552894607000
1552894630906.2500000000,28,-6.7400000000,A01525,1,1552894607000
1552894630921.8798828125,28,-4.2100000000,A01525,1,1552894607000
1552894630937.5000000000,28,-2.3400000000,A01525,1,1552894607000
1552894630953.1201171875,28,-0.8400000000,A01525,1,1552894607000
1552894630968.7500000000,28,0.4900000000,A01525,1,1552894607000
1552894630984.3798828125,28,1.7200000000,A01525,1,1552894607000
1552894631000.0000000000,28,2.7900000000,A01525,1,1552894607000
1552894631015.6201171875,28,3.6600000000,A01525,1,1552894607000
1552894631031.2500000000,28,4.3200000000,A01525,1,1552894607000
1552894631046.8798828125,28,4.8300000000,A01525,1,1552894607000
1552894631062.5000000000,28,5.2600000000,A01525,1,1552894607000
1552894631078.1201171875,28,5.7100000000,A01525,1,1552894607000
1552894631093.7500000000,28,6.1500000000,A01525,1,1552894607000
1552894631109.3798828125,28,6.5100000000,A01525,1,1552894607000
1552894631125.0000000000,28,6.7600000000,A01525,1,1552894607000
1552894631140.6201171875,28,6.8700000000,A01525,1,1552894607000
1552894631156.2500000000,28,6.9000000000,A01525,1,1552894607000
1552894631171.8798828125,28,6.9700000000,A01525,1,1552894607000
1552894631187.5000000000,28,7.2100000000,A01525,1,1552894607000
1552894631203.1201171875,28,7.6000000000,A01525,1,1552894607000
1552894631218.7500000000,28,8.0000000000,A01525,1,1552894607000
1552894631234.3798828125,28,8.1900000000,A01525,1,1552894607000
1552894631250.0000000000,28,8.0000000000,A01525,1,1552894607000
1552894631265.6201171875,28,7.3800000000,A01525,1,1552894607000
1552894631281.2500000000,28,6.4500000000,A01525,1,1552894607000
1552894631296.8798828125,28,5.3700000000,A01525,1,1552894607000
1552894631312.5000000000,28,4.3200000000,A01525,1,1552894607000
1552894631328.1201171875,28,3.2900000000,A01525,1,1552894607000
1552894631343.7500000000,28,2.1800000000,A01525,1,1552894607000
1552894631359.3798828125,28,0.8500000000,A01525,1,1552894607000
1552894631375.0000000000,28,-0.7400000000,A01525,1,1552894607000
1552894631390.6201171875,28,-2.4700000000,A01525,1,1552894607000
1552894631406.2500000000,28,-4.1200000000,A01525,1,1552894607000
1552894631421.8798828125,28,-5.4400000000,A01525,1,1552894607000
1552894631437.5000000000,28,-6.3500000000,A01525,1,1552894607000
1552894631453.1201171875,28,-6.9100000000,A01525,1,1552894607000
1552894631468.7500000000,28,-7.3600000000,A01525,1,1552894607000
1552894631484.3798828125,28,-7.9900000000,A01525,1,1552894607000
1552894631500.0000000000,28,-9.0400000000,A01525,1,1552894607000
1552894631515.6201171875,28,-10.6600000000,A01525,1,1552894607000
1552894631531.2500000000,28,-12.8500000000,A01525,1,1552894607000
1552894631546.8798828125,28,-15.4400000000,A01525,1,1552894607000
1552894631562.5000000000,28,-18.0800000000,A01525,1,1552894607000
1552894631578.1201171875,28,-20.3300000000,A01525,1,1552894607000
1552894631593.7500000000,28,-21.6900000000,A01525,1,1552894607000
1552894631609.3798828125,28,-21.7900000000,A01525,1,1552894607000
1552894631625.0000000000,28,-20.4300000000,A01525,1,1552894607000
1552894631640.6201171875,28,-17.7000000000,A01525,1,1552894607000
1552894631656.2500000000,28,-13.9300000000,A01525,1,1552894607000
1552894631671.8798828125,28,-9.6300000000,A01525,1,1552894607000
1552894631687.5000000000,28,-5.3300000000,A01525,1,1552894607000
1552894631703.1201171875,28,-1.4400000000,A01525,1,1552894607000
1552894631718.7500000000,28,1.8200000000,A01525,1,1552894607000
1552894631734.3798828125,28,4.4700000000,A01525,1,1552894607000
1552894631750.0000000000,28,6.6900000000,A01525,1,1552894607000
1552894631765.6201171875,28,8.6300000000,A01525,1,1552894607000
1552894631781.2500000000,28,10.4300000000,A01525,1,1552894607000
1552894631796.8798828125,28,12.0300000000,A01525,1,1552894607000
1552894631812.5000000000,28,13.2400000000,A01525,1,1552894607000
1552894631828.1201171875,28,13.8800000000,A01525,1,1552894607000
1552894631843.7500000000,28,13.8500000000,A01525,1,1552894607000
1552894631859.3798828125,28,13.1800000000,A01525,1,1552894607000
1552894631875.0000000000,28,12.0700000000,A01525,1,1552894607000
1552894631890.6201171875,28,10.7400000000,A01525,1,1552894607000
1552894631906.2500000000,28,9.4100000000,A01525,1,1552894607000
1552894631921.8798828125,28,8.1700000000,A01525,1,1552894607000
1552894631937.5000000000,28,7.0900000000,A01525,1,1552894607000
1552894631953.1201171875,28,6.1700000000,A01525,1,1552894607000
1552894631968.7500000000,28,5.3700000000,A01525,1,1552894607000
1552894631984.3798828125,28,4.6700000000,A01525,1,1552894607000
1552894632000.0000000000,28,4.0000000000,A01525,1,1552894607000
1552894632015.6201171875,28,3.2900000000,A01525,1,1552894607000
1552894632031.2500000000,28,2.4500000000,A01525,1,1552894607000
1552894632046.8798828125,28,1.4400000000,A01525,1,1552894607000
1552894632062.5000000000,28,0.2300000000,A01525,1,1552894607000
1552894632078.1201171875,28,-1.1600000000,A01525,1,1552894607000
1552894632093.7500000000,28,-2.7000000000,A01525,1,1552894607000
1552894632109.3798828125,28,-4.3000000000,A01525,1,1552894607000
1552894632125.0000000000,28,-5.8600000000,A01525,1,1552894607000
1552894632140.6201171875,28,-7.2400000000,A01525,1,1552894607000
1552894632156.2500000000,28,-8.3600000000,A01525,1,1552894607000
1552894632171.8798828125,28,-9.2100000000,A01525,1,1552894607000
1552894632187.5000000000,28,-9.9500000000,A01525,1,1552894607000
1552894632203.1201171875,28,-10.8000000000,A01525,1,1552894607000
1552894632218.7500000000,28,-11.9000000000,A01525,1,1552894607000
1552894632234.3798828125,28,-13.2600000000,A01525,1,1552894607000
1552894632250.0000000000,28,-14.7100000000,A01525,1,1552894607000
1552894632265.6201171875,28,-16.0400000000,A01525,1,1552894607000
1552894632281.2500000000,28,-17.1000000000,A01525,1,1552894607000
1552894632296.8798828125,28,-17.9700000000,A01525,1,1552894607000
1552894632312.5000000000,28,-18.8500000000,A01525,1,1552894607000
1552894632328.1201171875,28,-20.0500000000,A01525,1,1552894607000
1552894632343.7500000000,28,-21.7600000000,A01525,1,1552894607000
1552894632359.3798828125,28,-23.9600000000,A01525,1,1552894607000
1552894632375.0000000000,28,-26.4500000000,A01525,1,1552894607000
1552894632390.6201171875,28,-28.8800000000,A01525,1,1552894607000
1552894632406.2500000000,28,-30.7800000000,A01525,1,1552894607000
1552894632421.8798828125,28,-31.7000000000,A01525,1,1552894607000
1552894632437.5000000000,28,-31.2600000000,A01525,1,1552894607000
1552894632453.1201171875,28,-29.3000000000,A01525,1,1552894607000
1552894632468.7500000000,28,-25.9500000000,A01525,1,1552894607000
1552894632484.3798828125,28,-21.6300000000,A01525,1,1552894607000
1552894632500.0000000000,28,-16.9800000000,A01525,1,1552894607000
1552894632515.6201171875,28,-12.5000000000,A01525,1,1552894607000
1552894632531.2500000000,28,-8.5000000000,A01525,1,1552894607000
1552894632546.8798828125,28,-4.9400000000,A01525,1,1552894607000
1552894632562.5000000000,28,-1.6000000000,A01525,1,1552894607000
1552894632578.1201171875,28,1.7300000000,A01525,1,1552894607000
1552894632593.7500000000,28,5.0400000000,A01525,1,1552894607000
1552894632609.3798828125,28,8.1200000000,A01525,1,1552894607000
1552894632625.0000000000,28,10.6600000000,A01525,1,1552894607000
1552894632640.6201171875,28,12.4200000000,A01525,1,1552894607000
1552894632656.2500000000,28,13.3800000000,A01525,1,1552894607000
1552894632671.8798828125,28,13.7100000000,A01525,1,1552894607000
1552894632687.5000000000,28,13.7200000000,A01525,1,1552894607000
1552894632703.1201171875,28,13.6500000000,A01525,1,1552894607000
1552894632718.7500000000,28,13.6100000000,A01525,1,1552894607000
1552894632734.3798828125,28,13.5900000000,A01525,1,1552894607000
1552894632750.0000000000,28,13.4400000000,A01525,1,1552894607000
1552894632765.6201171875,28,12.9900000000,A01525,1,1552894607000
1552894632781.2500000000,28,12.1400000000,A01525,1,1552894607000
1552894632796.8798828125,28,10.8900000000,A01525,1,1552894607000
1552894632812.5000000000,28,9.3500000000,A01525,1,1552894607000
1552894632828.1201171875,28,7.6900000000,A01525,1,1552894607000
1552894632843.7500000000,28,6.0500000000,A01525,1,1552894607000
1552894632859.3798828125,28,4.5100000000,A01525,1,1552894607000
1552894632875.0000000000,28,3.0600000000,A01525,1,1552894607000
1552894632890.6201171875,28,1.6600000000,A01525,1,1552894607000
1552894632906.2500000000,28,0.3100000000,A01525,1,1552894607000
1552894632921.8798828125,28,-0.9500000000,A01525,1,1552894607000
1552894632937.5000000000,28,-2.0200000000,A01525,1,1552894607000
1552894632953.1201171875,28,-2.8500000000,A01525,1,1552894607000
1552894632968.7500000000,28,-3.4400000000,A01525,1,1552894607000
1552894632984.3798828125,28,-3.9300000000,A01525,1,1552894607000
1552894633000.0000000000,28,-4.4400000000,A01525,1,1552894607000
1552894633015.6201171875,28,-4.9700000000,A01525,1,1552894607000
1552894633031.2500000000,28,-5.3600000000,A01525,1,1552894607000
1552894633046.8798828125,28,-5.2400000000,A01525,1,1552894607000
1552894633062.5000000000,28,-4.3200000000,A01525,1,1552894607000
1552894633078.1201171875,28,-2.5000000000,A01525,1,1552894607000
1552894633093.7500000000,28,-0.0300000000,A01525,1,1552894607000
1552894633109.3798828125,28,2.4900000000,A01525,1,1552894607000
1552894633125.0000000000,28,4.4200000000,A01525,1,1552894607000
1552894633140.6201171875,28,5.2400000000,A01525,1,1552894607000
1552894633156.2500000000,28,4.8800000000,A01525,1,1552894607000
1552894633171.8798828125,28,3.6700000000,A01525,1,1552894607000
1552894633187.5000000000,28,2.2200000000,A01525,1,1552894607000
1552894633203.1201171875,28,1.2000000000,A01525,1,1552894607000
1552894633218.7500000000,28,1.0700000000,A01525,1,1552894607000
1552894633234.3798828125,28,1.9900000000,A01525,1,1552894607000
1552894633250.0000000000,28,3.8800000000,A01525,1,1552894607000
1552894633265.6201171875,28,6.4900000000,A01525,1,1552894607000
1552894633281.2500000000,28,9.5300000000,A01525,1,1552894607000
1552894633296.8798828125,28,12.7700000000,A01525,1,1552894607000
1552894633312.5000000000,28,16.0500000000,A01525,1,1552894607000
1552894633328.1201171875,28,19.1700000000,A01525,1,1552894607000
1552894633343.7500000000,28,21.9000000000,A01525,1,1552894607000
1552894633359.3798828125,28,23.9900000000,A01525,1,1552894607000
1552894633375.0000000000,28,25.1600000000,A01525,1,1552894607000
1552894633390.6201171875,28,25.2700000000,A01525,1,1552894607000
1552894633406.2500000000,28,24.3300000000,A01525,1,1552894607000
1552894633421.8798828125,28,22.5800000000,A01525,1,1552894607000
1552894633437.5000000000,28,20.4900000000,A01525,1,1552894607000
1552894633453.1201171875,28,18.5600000000,A01525,1,1552894607000
1552894633468.7500000000,28,17.1900000000,A01525,1,1552894607000
1552894633484.3798828125,28,16.5000000000,A01525,1,1552894607000
1552894633500.0000000000,28,16.2300000000,A01525,1,1552894607000
1552894633515.6201171875,28,15.8400000000,A01525,1,1552894607000
1552894633531.2500000000,28,14.7600000000,A01525,1,1552894607000
1552894633546.8798828125,28,12.7000000000,A01525,1,1552894607000
1552894633562.5000000000,28,9.9600000000,A01525,1,1552894607000
1552894633578.1201171875,28,7.6700000000,A01525,1,1552894607000
1552894633593.7500000000,28,7.7700000000,A01525,1,1552894607000
1552894633609.3798828125,28,12.4800000000,A01525,1,1552894607000
1552894633625.0000000000,28,23.6700000000,A01525,1,1552894607000
1552894633640.6201171875,28,41.9100000000,A01525,1,1552894607000
1552894633656.2500000000,28,66.0400000000,A01525,1,1552894607000
1552894633671.8798828125,28,93.3200000000,A01525,1,1552894607000
1552894633687.5000000000,28,120.1200000000,A01525,1,1552894607000
1552894633703.1201171875,28,142.8600000000,A01525,1,1552894607000
1552894633718.7500000000,28,158.7900000000,A01525,1,1552894607000
1552894633734.3798828125,28,166.1800000000,A01525,1,1552894607000
1552894633750.0000000000,28,164.4000000000,A01525,1,1552894607000
1552894633765.6201171875,28,153.7600000000,A01525,1,1552894607000
1552894633781.2500000000,28,135.6200000000,A01525,1,1552894607000
1552894633796.8798828125,28,112.5400000000,A01525,1,1552894607000
1552894633812.5000000000,28,87.8800000000,A01525,1,1552894607000
1552894633828.1201171875,28,65.0400000000,A01525,1,1552894607000
1552894633843.7500000000,28,46.3400000000,A01525,1,1552894607000
1552894633859.3798828125,28,32.3100000000,A01525,1,1552894607000
1552894633875.0000000000,28,22.0300000000,A01525,1,1552894607000
1552894633890.6201171875,28,14.1100000000,A01525,1,1552894607000
1552894633906.2500000000,28,7.8000000000,A01525,1,1552894607000
1552894633921.8798828125,28,3.1500000000,A01525,1,1552894607000
1552894633937.5000000000,28,0.3100000000,A01525,1,1552894607000
1552894633953.1201171875,28,-1.7500000000,A01525,1,1552894607000
1552894633968.7500000000,28,-5.6700000000,A01525,1,1552894607000
1552894633984.3798828125,28,-14.8200000000,A01525,1,1552894607000
1552894634000.0000000000,28,-31.3300000000,A01525,1,1552894607000
1552894634015.6201171875,28,-54.3400000000,A01525,1,1552894607000
1552894634031.2500000000,28,-79.7900000000,A01525,1,1552894607000
1552894634046.8798828125,28,-102.0400000000,A01525,1,1552894607000
1552894634062.5000000000,28,-116.5700000000,A01525,1,1552894607000
1552894634078.1201171875,28,-122.0900000000,A01525,1,1552894607000
1552894634093.7500000000,28,-120.8100000000,A01525,1,1552894607000
1552894634109.3798828125,28,-116.9500000000,A01525,1,1552894607000
1552894634125.0000000000,28,-114.2600000000,A01525,1,1552894607000
1552894634140.6201171875,28,-114.3900000000,A01525,1,1552894607000
1552894634156.2500000000,28,-116.6600000000,A01525,1,1552894607000
1552894634171.8798828125,28,-119.3100000000,A01525,1,1552894607000
1552894634187.5000000000,28,-121.1000000000,A01525,1,1552894607000
1552894634203.1201171875,28,-122.1300000000,A01525,1,1552894607000
1552894634218.7500000000,28,-123.4600000000,A01525,1,1552894607000
1552894634234.3798828125,28,-125.9700000000,A01525,1,1552894607000
1552894634250.0000000000,28,-129.2500000000,A01525,1,1552894607000
1552894634265.6201171875,28,-131.3700000000,A01525,1,1552894607000
1552894634281.2500000000,28,-129.5700000000,A01525,1,1552894607000
1552894634296.8798828125,28,-121.5500000000,A01525,1,1552894607000
1552894634312.5000000000,28,-106.4500000000,A01525,1,1552894607000
1552894634328.1201171875,28,-85.1900000000,A01525,1,1552894607000
1552894634343.7500000000,28,-60.1000000000,A01525,1,1552894607000
1552894634359.3798828125,28,-34.0300000000,A01525,1,1552894607000
1552894634375.0000000000,28,-9.6600000000,A01525,1,1552894607000
1552894634390.6201171875,28,11.0700000000,A01525,1,1552894607000
1552894634406.2500000000,28,27.1200000000,A01525,1,1552894607000
1552894634421.8798828125,28,38.4000000000,A01525,1,1552894607000
1552894634437.5000000000,28,45.6300000000,A01525,1,1552894607000
1552894634453.1201171875,28,50.1900000000,A01525,1,1552894607000
1552894634468.7500000000,28,53.7100000000,A01525,1,1552894607000
1552894634484.3798828125,28,57.5400000000,A01525,1,1552894607000
1552894634500.0000000000,28,62.3200000000,A01525,1,1552894607000
1552894634515.6201171875,28,67.6400000000,A01525,1,1552894607000
1552894634531.2500000000,28,72.2900000000,A01525,1,1552894607000
1552894634546.8798828125,28,74.7800000000,A01525,1,1552894607000
1552894634562.5000000000,28,74.0000000000,A01525,1,1552894607000
1552894634578.1201171875,28,69.7700000000,A01525,1,1552894607000
1552894634593.7500000000,28,62.9700000000,A01525,1,1552894607000
1552894634609.3798828125,28,55.1100000000,A01525,1,1552894607000
1552894634625.0000000000,28,47.6500000000,A01525,1,1552894607000
1552894634640.6201171875,28,41.5300000000,A01525,1,1552894607000
1552894634656.2500000000,28,37.0200000000,A01525,1,1552894607000
1552894634671.8798828125,28,33.8200000000,A01525,1,1552894607000
1552894634687.5000000000,28,31.2500000000,A01525,1,1552894607000
1552894634703.1201171875,28,28.3900000000,A01525,1,1552894607000
1552894634718.7500000000,28,24.1700000000,A01525,1,1552894607000
1552894634734.3798828125,28,17.6200000000,A01525,1,1552894607000
1552894634750.0000000000,28,8.3100000000,A01525,1,1552894607000
1552894634765.6201171875,28,-3.3600000000,A01525,1,1552894607000
1552894634781.2500000000,28,-16.0000000000,A01525,1,1552894607000
1552894634796.8798828125,28,-27.6900000000,A01525,1,1552894607000
1552894634812.5000000000,28,-36.6600000000,A01525,1,1552894607000
1552894634828.1201171875,28,-42.0600000000,A01525,1,1552894607000
1552894634843.7500000000,28,-44.1800000000,A01525,1,1552894607000
1552894634859.3798828125,28,-44.0600000000,A01525,1,1552894607000
1552894634875.0000000000,28,-42.8400000000,A01525,1,1552894607000
1552894634890.6201171875,28,-41.1600000000,A01525,1,1552894607000
1552894634906.2500000000,28,-38.9600000000,A01525,1,1552894607000
1552894634921.8798828125,28,-35.9000000000,A01525,1,1552894607000
1552894634937.5000000000,28,-31.6700000000,A01525,1,1552894607000
1552894634953.1201171875,28,-26.2200000000,A01525,1,1552894607000
1552894634968.7500000000,28,-19.5900000000,A01525,1,1552894607000
1552894634984.3798828125,28,-11.7400000000,A01525,1,1552894607000
1552894635000.0000000000,28,-2.5100000000,A01525,1,1552894607000
1552894635015.6201171875,28,7.8400000000,A01525,1,1552894607000
1552894635031.2500000000,28,17.9800000000,A01525,1,1552894607000
1552894635046.8798828125,28,25.5200000000,A01525,1,1552894607000
1552894635062.5000000000,28,27.7100000000,A01525,1,1552894607000
1552894635078.1201171875,28,22.7700000000,A01525,1,1552894607000
1552894635093.7500000000,28,11.1500000000,A01525,1,1552894607000
1552894635109.3798828125,28,-4.2400000000,A01525,1,1552894607000
1552894635125.0000000000,28,-19.1000000000,A01525,1,1552894607000
1552894635140.6201171875,28,-29.3600000000,A01525,1,1552894607000
1552894635156.2500000000,28,-32.8700000000,A01525,1,1552894607000
1552894635171.8798828125,28,-30.0100000000,A01525,1,1552894607000
1552894635187.5000000000,28,-23.1200000000,A01525,1,1552894607000
1552894635203.1201171875,28,-15.1900000000,A01525,1,1552894607000
1552894635218.7500000000,28,-8.6000000000,A01525,1,1552894607000
1552894635234.3798828125,28,-4.5300000000,A01525,1,1552894607000
1552894635250.0000000000,28,-3.0900000000,A01525,1,1552894607000
1552894635265.6201171875,28,-3.8200000000,A01525,1,1552894607000
1552894635281.2500000000,28,-6.1800000000,A01525,1,1552894607000
1552894635296.8798828125,28,-9.7300000000,A01525,1,1552894607000
1552894635312.5000000000,28,-14.3500000000,A01525,1,1552894607000
1552894635328.1201171875,28,-20.2900000000,A01525,1,1552894607000
1552894635343.7500000000,28,-28.2300000000,A01525,1,1552894607000
1552894635359.3798828125,28,-39.0000000000,A01525,1,1552894607000
1552894635375.0000000000,28,-53.1000000000,A01525,1,1552894607000
1552894635390.6201171875,28,-70.1200000000,A01525,1,1552894607000
1552894635406.2500000000,28,-88.5800000000,A01525,1,1552894607000
1552894635421.8798828125,28,-106.4400000000,A01525,1,1552894607000
1552894635437.5000000000,28,-121.7100000000,A01525,1,1552894607000
1552894635453.1201171875,28,-133.1000000000,A01525,1,1552894607000
1552894635468.7500000000,28,-140.2000000000,A01525,1,1552894607000
1552894635484.3798828125,28,-143.1900000000,A01525,1,1552894607000
1552894635500.0000000000,28,-142.1400000000,A01525,1,1552894607000
1552894635515.6201171875,28,-136.6700000000,A01525,1,1552894607000
1552894635531.2500000000,28,-126.1400000000,A01525,1,1552894607000
1552894635546.8798828125,28,-110.2700000000,A01525,1,1552894607000
1552894635562.5000000000,28,-89.6600000000,A01525,1,1552894607000
1552894635578.1201171875,28,-65.7400000000,A01525,1,1552894607000
1552894635593.7500000000,28,-40.2200000000,A01525,1,1552894607000
1552894635609.3798828125,28,-14.3100000000,A01525,1,1552894607000
1552894635625.0000000000,28,11.4900000000,A01525,1,1552894607000
1552894635640.6201171875,28,37.2200000000,A01525,1,1552894607000
1552894635656.2500000000,28,62.7000000000,A01525,1,1552894607000
1552894635671.8798828125,28,86.9300000000,A01525,1,1552894607000
1552894635687.5000000000,28,108.0300000000,A01525,1,1552894607000
1552894635703.1201171875,28,123.8000000000,A01525,1,1552894607000
1552894635718.7500000000,28,132.5400000000,A01525,1,1552894607000
1552894635734.3798828125,28,133.7500000000,A01525,1,1552894607000
1552894635750.0000000000,28,128.2100000000,A01525,1,1552894607000
1552894635765.6201171875,28,117.3600000000,A01525,1,1552894607000
