timestamp,pid,value,device_serial,device_number,entry_time
1548724972000.0000000000,10,0E-10,A01BBE,5,1548724972000
1548724972015.6201171875,10,0E-10,A01BBE,5,1548724972000
1548724972031.2500000000,10,0E-10,A01BBE,5,1548724972000
1548724972046.8798828125,10,0E-10,A01BBE,5,1548724972000
1548724972062.5000000000,10,0E-10,A01BBE,5,1548724972000
1548724972078.1201171875,10,0E-10,A01BBE,5,1548724972000
1548724972093.7500000000,10,0E-10,A01BBE,5,1548724972000
1548724972109.3798828125,10,0E-10,A01BBE,5,1548724972000
1548724972125.0000000000,10,0E-10,A01BBE,5,1548724972000
1548724972140.6201171875,10,0E-10,A01BBE,5,1548724972000
1548724972156.2500000000,10,0E-10,A01BBE,5,1548724972000
1548724972171.8798828125,10,0.0100000000,A01BBE,5,1548724972000
1548724972187.5000000000,10,0.0100000000,A01BBE,5,1548724972000
1548724972203.1201171875,10,0E-10,A01BBE,5,1548724972000
1548724972218.7500000000,10,-0.0300000000,A01BBE,5,1548724972000
1548724972234.3798828125,10,-0.0500000000,A01BBE,5,1548724972000
1548724972250.0000000000,10,-0.0500000000,A01BBE,5,1548724972000
1548724972265.6201171875,10,0E-10,A01BBE,5,1548724972000
1548724972281.2500000000,10,0.1300000000,A01BBE,5,1548724972000
1548724972296.8798828125,10,0.3600000000,A01BBE,5,1548724972000
1548724972312.5000000000,10,0.6600000000,A01BBE,5,1548724972000
1548724972328.1201171875,10,1.0100000000,A01BBE,5,1548724972000
1548724972343.7500000000,10,1.3700000000,A01BBE,5,1548724972000
1548724972359.3798828125,10,1.7200000000,A01BBE,5,1548724972000
1548724972375.0000000000,10,2.0600000000,A01BBE,5,1548724972000
1548724972390.6201171875,10,2.4000000000,A01BBE,5,1548724972000
1548724972406.2500000000,10,2.7900000000,A01BBE,5,1548724972000
1548724972421.8798828125,10,3.2400000000,A01BBE,5,1548724972000
1548724972437.5000000000,10,3.8000000000,A01BBE,5,1548724972000
1548724972453.1201171875,10,4.4200000000,A01BBE,5,1548724972000
1548724972468.7500000000,10,5.0600000000,A01BBE,5,1548724972000
1548724972484.3798828125,10,5.6600000000,A01BBE,5,1548724972000
1548724972500.0000000000,10,6.2000000000,A01BBE,5,1548724972000
1548724972515.6201171875,10,6.6800000000,A01BBE,5,1548724972000
1548724972531.2500000000,10,7.1500000000,A01BBE,5,1548724972000
1548724972546.8798828125,10,7.6800000000,A01BBE,5,1548724972000
1548724972562.5000000000,10,8.3100000000,A01BBE,5,1548724972000
1548724972578.1201171875,10,9.1400000000,A01BBE,5,1548724972000
1548724972593.7500000000,10,10.0900000000,A01BBE,5,1548724972000
1548724972609.3798828125,10,11.0400000000,A01BBE,5,1548724972000
1548724972625.0000000000,10,11.8800000000,A01BBE,5,1548724972000
1548724972640.6201171875,10,12.5600000000,A01BBE,5,1548724972000
1548724972656.2500000000,10,13.1400000000,A01BBE,5,1548724972000
1548724972671.8798828125,10,13.7600000000,A01BBE,5,1548724972000
1548724972687.5000000000,10,14.6500000000,A01BBE,5,1548724972000
1548724972703.1201171875,10,15.9600000000,A01BBE,5,1548724972000
1548724972718.7500000000,10,17.9100000000,A01BBE,5,1548724972000
1548724972734.3798828125,10,20.3200000000,A01BBE,5,1548724972000
1548724972750.0000000000,10,22.9000000000,A01BBE,5,1548724972000
1548724972765.6201171875,10,25.3800000000,A01BBE,5,1548724972000
1548724972781.2500000000,10,27.5800000000,A01BBE,5,1548724972000
1548724972796.8798828125,10,29.5700000000,A01BBE,5,1548724972000
1548724972812.5000000000,10,31.6800000000,A01BBE,5,1548724972000
1548724972828.1201171875,10,34.3200000000,A01BBE,5,1548724972000
1548724972843.7500000000,10,37.8100000000,A01BBE,5,1548724972000
1548724972859.3798828125,10,42.5400000000,A01BBE,5,1548724972000
1548724972875.0000000000,10,48.1500000000,A01BBE,5,1548724972000
1548724972890.6201171875,10,54.1000000000,A01BBE,5,1548724972000
1548724972906.2500000000,10,59.8300000000,A01BBE,5,1548724972000
1548724972921.8798828125,10,64.9700000000,A01BBE,5,1548724972000
1548724972937.5000000000,10,69.5800000000,A01BBE,5,1548724972000
1548724972953.1201171875,10,74.1400000000,A01BBE,5,1548724972000
1548724972968.7500000000,10,79.3400000000,A01BBE,5,1548724972000
1548724972984.3798828125,10,85.7100000000,A01BBE,5,1548724972000
1548724973000.0000000000,10,93.7600000000,A01BBE,5,1548724972000
1548724973015.6201171875,10,103.0000000000,A01BBE,5,1548724972000
1548724973031.2500000000,10,112.6200000000,A01BBE,5,1548724972000
1548724973046.8798828125,10,121.7300000000,A01BBE,5,1548724972000
1548724973062.5000000000,10,129.7700000000,A01BBE,5,1548724972000
1548724973078.1201171875,10,136.7500000000,A01BBE,5,1548724972000
1548724973093.7500000000,10,143.3000000000,A01BBE,5,1548724972000
1548724973109.3798828125,10,150.7500000000,A01BBE,5,1548724972000
1548724973125.0000000000,10,157.7700000000,A01BBE,5,1548724972000
1548724973140.6201171875,10,166.6400000000,A01BBE,5,1548724972000
1548724973156.2500000000,10,177.9500000000,A01BBE,5,1548724972000
1548724973171.8798828125,10,191.7900000000,A01BBE,5,1548724972000
1548724973187.5000000000,10,206.9700000000,A01BBE,5,1548724972000
1548724973203.1201171875,10,220.5700000000,A01BBE,5,1548724972000
1548724973218.7500000000,10,228.2500000000,A01BBE,5,1548724972000
1548724973234.3798828125,10,225.3600000000,A01BBE,5,1548724972000
1548724973250.0000000000,10,208.5300000000,A01BBE,5,1548724972000
1548724973265.6201171875,10,176.8700000000,A01BBE,5,1548724972000
1548724973281.2500000000,10,132.7600000000,A01BBE,5,1548724972000
1548724973296.8798828125,10,80.0500000000,A01BBE,5,1548724972000
1548724973312.5000000000,10,23.0700000000,A01BBE,5,1548724972000
1548724973328.1201171875,10,-34.9400000000,A01BBE,5,1548724972000
1548724973343.7500000000,10,-92.4400000000,A01BBE,5,1548724972000
1548724973359.3798828125,10,-149.1600000000,A01BBE,5,1548724972000
1548724973375.0000000000,10,-205.2300000000,A01BBE,5,1548724972000
1548724973390.6201171875,10,-260.3700000000,A01BBE,5,1548724972000
1548724973406.2500000000,10,-313.7400000000,A01BBE,5,1548724972000
1548724973421.8798828125,10,-363.8700000000,A01BBE,5,1548724972000
1548724973437.5000000000,10,-409.8300000000,A01BBE,5,1548724972000
1548724973453.1201171875,10,-450.9100000000,A01BBE,5,1548724972000
1548724973468.7500000000,10,-486.5000000000,A01BBE,5,1548724972000
1548724973484.3798828125,10,-515.7400000000,A01BBE,5,1548724972000
1548724973500.0000000000,10,-537.2300000000,A01BBE,5,1548724972000
1548724973515.6201171875,10,-549.2200000000,A01BBE,5,1548724972000
1548724973531.2500000000,10,-549.9600000000,A01BBE,5,1548724972000
1548724973546.8798828125,10,-538.3700000000,A01BBE,5,1548724972000
1548724973562.5000000000,10,-514.2100000000,A01BBE,5,1548724972000
1548724973578.1201171875,10,-478.6700000000,A01BBE,5,1548724972000
1548724973593.7500000000,10,-433.8800000000,A01BBE,5,1548724972000
1548724973609.3798828125,10,-382.4500000000,A01BBE,5,1548724972000
1548724973625.0000000000,10,-327.0200000000,A01BBE,5,1548724972000
1548724973640.6201171875,10,-269.8400000000,A01BBE,5,1548724972000
1548724973656.2500000000,10,-212.6300000000,A01BBE,5,1548724972000
1548724973671.8798828125,10,-156.6600000000,A01BBE,5,1548724972000
1548724973687.5000000000,10,-102.9500000000,A01BBE,5,1548724972000
1548724973703.1201171875,10,-52.3700000000,A01BBE,5,1548724972000
1548724973718.7500000000,10,-5.9000000000,A01BBE,5,1548724972000
1548724973734.3798828125,10,35.5800000000,A01BBE,5,1548724972000
1548724973750.0000000000,10,71.4300000000,A01BBE,5,1548724972000
1548724973765.6201171875,10,101.3500000000,A01BBE,5,1548724972000
1548724973781.2500000000,10,125.5000000000,A01BBE,5,1548724972000
1548724973796.8798828125,10,144.3800000000,A01BBE,5,1548724972000
1548724973812.5000000000,10,158.6900000000,A01BBE,5,1548724972000
1548724973828.1201171875,10,169.1500000000,A01BBE,5,1548724972000
1548724973843.7500000000,10,176.3700000000,A01BBE,5,1548724972000
1548724973859.3798828125,10,180.7500000000,A01BBE,5,1548724972000
1548724973875.0000000000,10,182.5700000000,A01BBE,5,1548724972000
1548724973890.6201171875,10,182.0700000000,A01BBE,5,1548724972000
1548724973906.2500000000,10,179.5100000000,A01BBE,5,1548724972000
1548724973921.8798828125,10,175.2300000000,A01BBE,5,1548724972000
1548724973937.5000000000,10,169.6500000000,A01BBE,5,1548724972000
1548724973953.1201171875,10,163.1800000000,A01BBE,5,1548724972000
1548724973968.7500000000,10,156.1500000000,A01BBE,5,1548724972000
1548724973984.3798828125,10,148.8100000000,A01BBE,5,1548724972000
1548724974000.0000000000,10,141.3000000000,A01BBE,5,1548724972000
1548724974015.6201171875,10,133.6900000000,A01BBE,5,1548724972000
1548724974031.2500000000,10,126.0200000000,A01BBE,5,1548724972000
1548724974046.8798828125,10,118.3300000000,A01BBE,5,1548724972000
1548724974062.5000000000,10,110.6900000000,A01BBE,5,1548724972000
1548724974078.1201171875,10,103.1600000000,A01BBE,5,1548724972000
1548724974093.7500000000,10,95.8000000000,A01BBE,5,1548724972000
1548724974109.3798828125,10,88.6800000000,A01BBE,5,1548724972000
1548724974125.0000000000,10,81.8300000000,A01BBE,5,1548724972000
1548724974140.6201171875,10,75.2500000000,A01BBE,5,1548724972000
1548724974156.2500000000,10,68.9500000000,A01BBE,5,1548724972000
1548724974171.8798828125,10,62.9500000000,A01BBE,5,1548724972000
1548724974187.5000000000,10,57.2500000000,A01BBE,5,1548724972000
1548724974203.1201171875,10,51.8600000000,A01BBE,5,1548724972000
1548724974218.7500000000,10,46.7800000000,A01BBE,5,1548724972000
1548724974234.3798828125,10,42.0300000000,A01BBE,5,1548724972000
1548724974250.0000000000,10,37.5900000000,A01BBE,5,1548724972000
1548724974265.6201171875,10,33.4500000000,A01BBE,5,1548724972000
1548724974281.2500000000,10,29.6100000000,A01BBE,5,1548724972000
1548724974296.8798828125,10,26.0700000000,A01BBE,5,1548724972000
1548724974312.5000000000,10,22.8100000000,A01BBE,5,1548724972000
1548724974328.1201171875,10,19.8300000000,A01BBE,5,1548724972000
1548724974343.7500000000,10,17.1100000000,A01BBE,5,1548724972000
1548724974359.3798828125,10,14.6700000000,A01BBE,5,1548724972000
1548724974375.0000000000,10,12.4800000000,A01BBE,5,1548724972000
1548724974390.6201171875,10,10.5400000000,A01BBE,5,1548724972000
1548724974406.2500000000,10,8.8300000000,A01BBE,5,1548724972000
1548724974421.8798828125,10,7.3500000000,A01BBE,5,1548724972000
1548724974437.5000000000,10,6.0700000000,A01BBE,5,1548724972000
1548724974453.1201171875,10,4.9700000000,A01BBE,5,1548724972000
1548724974468.7500000000,10,4.0500000000,A01BBE,5,1548724972000
1548724974484.3798828125,10,3.2700000000,A01BBE,5,1548724972000
1548724974500.0000000000,10,2.6200000000,A01BBE,5,1548724972000
1548724974515.6201171875,10,2.0900000000,A01BBE,5,1548724972000
1548724974531.2500000000,10,1.6500000000,A01BBE,5,1548724972000
1548724974546.8798828125,10,1.3000000000,A01BBE,5,1548724972000
1548724974562.5000000000,10,1.0100000000,A01BBE,5,1548724972000
1548724974578.1201171875,10,0.7900000000,A01BBE,5,1548724972000
1548724974593.7500000000,10,0.6100000000,A01BBE,5,1548724972000
1548724974609.3798828125,10,0.4700000000,A01BBE,5,1548724972000
1548724974625.0000000000,10,0.3700000000,A01BBE,5,1548724972000
1548724974640.6201171875,10,0.2900000000,A01BBE,5,1548724972000
1548724974656.2500000000,10,0.2300000000,A01BBE,5,1548724972000
1548724974671.8798828125,10,0.1800000000,A01BBE,5,1548724972000
1548724974687.5000000000,10,0.1600000000,A01BBE,5,1548724972000
1548724974703.1201171875,10,0.1400000000,A01BBE,5,1548724972000
1548724974718.7500000000,10,0.1300000000,A01BBE,5,1548724972000
1548724974734.3798828125,10,0.1400000000,A01BBE,5,1548724972000
1548724974750.0000000000,10,0.1600000000,A01BBE,5,1548724972000
1548724974765.6201171875,10,0.1800000000,A01BBE,5,1548724972000
1548724974781.2500000000,10,0.2000000000,A01BBE,5,1548724972000
1548724974796.8798828125,10,0.2400000000,A01BBE,5,1548724972000
1548724974812.5000000000,10,0.2800000000,A01BBE,5,1548724972000
1548724974828.1201171875,10,0.3200000000,A01BBE,5,1548724972000
1548724974843.7500000000,10,0.3600000000,A01BBE,5,1548724972000
1548724974859.3798828125,10,0.4100000000,A01BBE,5,1548724972000
1548724974875.0000000000,10,0.4600000000,A01BBE,5,1548724972000
1548724974890.6201171875,10,0.5000000000,A01BBE,5,1548724972000
1548724974906.2500000000,10,0.5500000000,A01BBE,5,1548724972000
1548724974921.8798828125,10,0.6000000000,A01BBE,5,1548724972000
1548724974937.5000000000,10,0.6500000000,A01BBE,5,1548724972000
1548724974953.1201171875,10,0.7000000000,A01BBE,5,1548724972000
1548724974968.7500000000,10,0.7500000000,A01BBE,5,1548724972000
1548724974984.3798828125,10,0.8100000000,A01BBE,5,1548724972000
1548724975000.0000000000,10,0.8700000000,A01BBE,5,1548724972000
1548724975015.6201171875,10,0.9400000000,A01BBE,5,1548724972000
1548724975031.2500000000,10,1.0200000000,A01BBE,5,1548724972000
1548724975046.8798828125,10,1.1100000000,A01BBE,5,1548724972000
1548724975062.5000000000,10,1.2100000000,A01BBE,5,1548724972000
1548724975078.1201171875,10,1.3300000000,A01BBE,5,1548724972000
1548724975093.7500000000,10,1.4600000000,A01BBE,5,1548724972000
1548724975109.3798828125,10,1.6000000000,A01BBE,5,1548724972000
1548724975125.0000000000,10,1.7700000000,A01BBE,5,1548724972000
1548724975140.6201171875,10,1.9500000000,A01BBE,5,1548724972000
1548724975156.2500000000,10,2.1600000000,A01BBE,5,1548724972000
1548724975171.8798828125,10,2.3900000000,A01BBE,5,1548724972000
1548724975187.5000000000,10,2.6400000000,A01BBE,5,1548724972000
1548724975203.1201171875,10,2.9200000000,A01BBE,5,1548724972000
1548724975218.7500000000,10,3.2300000000,A01BBE,5,1548724972000
1548724975234.3798828125,10,3.5800000000,A01BBE,5,1548724972000
1548724975250.0000000000,10,3.9500000000,A01BBE,5,1548724972000
1548724975265.6201171875,10,4.3600000000,A01BBE,5,1548724972000
1548724975281.2500000000,10,4.8000000000,A01BBE,5,1548724972000
1548724975296.8798828125,10,5.2900000000,A01BBE,5,1548724972000
1548724975312.5000000000,10,5.8100000000,A01BBE,5,1548724972000
1548724975328.1201171875,10,6.3700000000,A01BBE,5,1548724972000
1548724975343.7500000000,10,6.9700000000,A01BBE,5,1548724972000
1548724975359.3798828125,10,7.6100000000,A01BBE,5,1548724972000
1548724975375.0000000000,10,8.2900000000,A01BBE,5,1548724972000
1548724975390.6201171875,10,9.0200000000,A01BBE,5,1548724972000
1548724975406.2500000000,10,9.8000000000,A01BBE,5,1548724972000
1548724975421.8798828125,10,10.6200000000,A01BBE,5,1548724972000
1548724975437.5000000000,10,11.4800000000,A01BBE,5,1548724972000
1548724975453.1201171875,10,12.3900000000,A01BBE,5,1548724972000
1548724975468.7500000000,10,13.3400000000,A01BBE,5,1548724972000
1548724975484.3798828125,10,14.3400000000,A01BBE,5,1548724972000
1548724975500.0000000000,10,15.4000000000,A01BBE,5,1548724972000
1548724975515.6201171875,10,16.5300000000,A01BBE,5,1548724972000
1548724975531.2500000000,10,17.7300000000,A01BBE,5,1548724972000
1548724975546.8798828125,10,18.9800000000,A01BBE,5,1548724972000
1548724975562.5000000000,10,20.2800000000,A01BBE,5,1548724972000
1548724975578.1201171875,10,21.6100000000,A01BBE,5,1548724972000
1548724975593.7500000000,10,22.8800000000,A01BBE,5,1548724972000
1548724975609.3798828125,10,24.0400000000,A01BBE,5,1548724972000
1548724975625.0000000000,10,24.9700000000,A01BBE,5,1548724972000
1548724975640.6201171875,10,25.5500000000,A01BBE,5,1548724972000
1548724975656.2500000000,10,25.6200000000,A01BBE,5,1548724972000
1548724975671.8798828125,10,25.0800000000,A01BBE,5,1548724972000
1548724975687.5000000000,10,23.7900000000,A01BBE,5,1548724972000
1548724975703.1201171875,10,21.7100000000,A01BBE,5,1548724972000
1548724975718.7500000000,10,18.8400000000,A01BBE,5,1548724972000
1548724975734.3798828125,10,15.2400000000,A01BBE,5,1548724972000
1548724975750.0000000000,10,11.0000000000,A01BBE,5,1548724972000
1548724975765.6201171875,10,6.3400000000,A01BBE,5,1548724972000
1548724975781.2500000000,10,1.4800000000,A01BBE,5,1548724972000
1548724975796.8798828125,10,-3.3300000000,A01BBE,5,1548724972000
1548724975812.5000000000,10,-7.8600000000,A01BBE,5,1548724972000
1548724975828.1201171875,10,-11.8800000000,A01BBE,5,1548724972000
1548724975843.7500000000,10,-15.1800000000,A01BBE,5,1548724972000
1548724975859.3798828125,10,-17.5900000000,A01BBE,5,1548724972000
1548724975875.0000000000,10,-18.9900000000,A01BBE,5,1548724972000
1548724975890.6201171875,10,-19.3200000000,A01BBE,5,1548724972000
1548724975906.2500000000,10,-18.6000000000,A01BBE,5,1548724972000
1548724975921.8798828125,10,-16.9600000000,A01BBE,5,1548724972000
1548724975937.5000000000,10,-14.6500000000,A01BBE,5,1548724972000
1548724975953.1201171875,10,-11.8900000000,A01BBE,5,1548724972000
1548724975968.7500000000,10,-8.9800000000,A01BBE,5,1548724972000
1548724975984.3798828125,10,-6.1300000000,A01BBE,5,1548724972000
1548724976000.0000000000,10,-3.4900000000,A01BBE,5,1548724972000
1548724976015.6201171875,10,-1.1100000000,A01BBE,5,1548724972000
1548724976031.2500000000,10,1.0200000000,A01BBE,5,1548724972000
1548724976046.8798828125,10,2.9900000000,A01BBE,5,1548724972000
1548724976062.5000000000,10,4.7500000000,A01BBE,5,1548724972000
1548724976078.1201171875,10,6.3000000000,A01BBE,5,1548724972000
1548724976093.7500000000,10,7.6100000000,A01BBE,5,1548724972000
1548724976109.3798828125,10,8.6200000000,A01BBE,5,1548724972000
1548724976125.0000000000,10,9.3700000000,A01BBE,5,1548724972000
1548724976140.6201171875,10,9.9400000000,A01BBE,5,1548724972000
1548724976156.2500000000,10,10.5100000000,A01BBE,5,1548724972000
1548724976171.8798828125,10,11.2500000000,A01BBE,5,1548724972000
1548724976187.5000000000,10,12.3400000000,A01BBE,5,1548724972000
1548724976203.1201171875,10,13.5800000000,A01BBE,5,1548724972000
1548724976218.7500000000,10,14.7300000000,A01BBE,5,1548724972000
1548724976234.3798828125,10,15.4800000000,A01BBE,5,1548724972000
1548724976250.0000000000,10,15.5000000000,A01BBE,5,1548724972000
1548724976265.6201171875,10,14.6900000000,A01BBE,5,1548724972000
1548724976281.2500000000,10,13.2000000000,A01BBE,5,1548724972000
1548724976296.8798828125,10,11.4100000000,A01BBE,5,1548724972000
1548724976312.5000000000,10,9.9200000000,A01BBE,5,1548724972000
1548724976328.1201171875,10,9.2700000000,A01BBE,5,1548724972000
1548724976343.7500000000,10,9.3300000000,A01BBE,5,1548724972000
1548724976359.3798828125,10,9.7600000000,A01BBE,5,1548724972000
1548724976375.0000000000,10,10.0500000000,A01BBE,5,1548724972000
1548724976390.6201171875,10,9.6400000000,A01BBE,5,1548724972000
1548724976406.2500000000,10,8.3200000000,A01BBE,5,1548724972000
1548724976421.8798828125,10,6.3300000000,A01BBE,5,1548724972000
1548724976437.5000000000,10,4.3600000000,A01BBE,5,1548724972000
1548724976453.1201171875,10,3.2800000000,A01BBE,5,1548724972000
1548724976468.7500000000,10,3.9400000000,A01BBE,5,1548724972000
1548724976484.3798828125,10,5.9700000000,A01BBE,5,1548724972000
1548724976500.0000000000,10,8.6300000000,A01BBE,5,1548724972000
1548724976515.6201171875,10,10.8000000000,A01BBE,5,1548724972000
1548724976531.2500000000,10,11.4000000000,A01BBE,5,1548724972000
1548724976546.8798828125,10,9.8600000000,A01BBE,5,1548724972000
1548724976562.5000000000,10,6.3900000000,A01BBE,5,1548724972000
1548724976578.1201171875,10,1.8900000000,A01BBE,5,1548724972000
1548724976593.7500000000,10,-2.3800000000,A01BBE,5,1548724972000
1548724976609.3798828125,10,-5.2200000000,A01BBE,5,1548724972000
1548724976625.0000000000,10,-6.9400000000,A01BBE,5,1548724972000
1548724976640.6201171875,10,-8.3800000000,A01BBE,5,1548724972000
1548724976656.2500000000,10,-10.8800000000,A01BBE,5,1548724972000
1548724976671.8798828125,10,-16.1200000000,A01BBE,5,1548724972000
1548724976687.5000000000,10,-25.7600000000,A01BBE,5,1548724972000
1548724976703.1201171875,10,-41.3100000000,A01BBE,5,1548724972000
1548724976718.7500000000,10,-63.8300000000,A01BBE,5,1548724972000
1548724976734.3798828125,10,-93.8800000000,A01BBE,5,1548724972000
1548724976750.0000000000,10,-125.1900000000,A01BBE,5,1548724972000
1548724976765.6201171875,10,-152.5800000000,A01BBE,5,1548724972000
1548724976781.2500000000,10,-170.6200000000,A01BBE,5,1548724972000
1548724976796.8798828125,10,-175.1400000000,A01BBE,5,1548724972000
1548724976812.5000000000,10,-164.8900000000,A01BBE,5,1548724972000
1548724976828.1201171875,10,-142.2000000000,A01BBE,5,1548724972000
1548724976843.7500000000,10,-112.3600000000,A01BBE,5,1548724972000
1548724976859.3798828125,10,-81.5900000000,A01BBE,5,1548724972000
1548724976875.0000000000,10,-54.6700000000,A01BBE,5,1548724972000
1548724976890.6201171875,10,-33.4600000000,A01BBE,5,1548724972000
1548724976906.2500000000,10,-17.9300000000,A01BBE,5,1548724972000
1548724976921.8798828125,10,-6.3900000000,A01BBE,5,1548724972000
1548724976937.5000000000,10,2.7400000000,A01BBE,5,1548724972000
1548724976953.1201171875,10,9.9800000000,A01BBE,5,1548724972000
1548724976968.7500000000,10,14.9900000000,A01BBE,5,1548724972000
1548724976984.3798828125,10,17.4400000000,A01BBE,5,1548724972000
1548724977000.0000000000,10,17.8400000000,A01BBE,5,1548724972000
1548724977015.6201171875,10,17.6200000000,A01BBE,5,1548724972000
1548724977031.2500000000,10,18.6000000000,A01BBE,5,1548724972000
1548724977046.8798828125,10,21.4000000000,A01BBE,5,1548724972000
1548724977062.5000000000,10,25.9200000000,A01BBE,5,1548724972000
1548724977078.1201171875,10,31.2600000000,A01BBE,5,1548724972000
1548724977093.7500000000,10,36.3400000000,A01BBE,5,1548724972000
1548724977109.3798828125,10,40.4600000000,A01BBE,5,1548724972000
1548724977125.0000000000,10,43.5700000000,A01BBE,5,1548724972000
1548724977140.6201171875,10,46.1100000000,A01BBE,5,1548724972000
1548724977156.2500000000,10,48.6600000000,A01BBE,5,1548724972000
1548724977171.8798828125,10,51.6900000000,A01BBE,5,1548724972000
1548724977187.5000000000,10,54.9700000000,A01BBE,5,1548724972000
1548724977203.1201171875,10,58.1700000000,A01BBE,5,1548724972000
1548724977218.7500000000,10,60.9600000000,A01BBE,5,1548724972000
1548724977234.3798828125,10,63.0600000000,A01BBE,5,1548724972000
1548724977250.0000000000,10,64.3300000000,A01BBE,5,1548724972000
1548724977265.6201171875,10,64.7500000000,A01BBE,5,1548724972000
1548724977281.2500000000,10,64.4000000000,A01BBE,5,1548724972000
1548724977296.8798828125,10,63.5100000000,A01BBE,5,1548724972000
1548724977312.5000000000,10,62.4100000000,A01BBE,5,1548724972000
1548724977328.1201171875,10,61.1700000000,A01BBE,5,1548724972000
1548724977343.7500000000,10,59.7300000000,A01BBE,5,1548724972000
1548724977359.3798828125,10,57.7900000000,A01BBE,5,1548724972000
1548724977375.0000000000,10,54.7700000000,A01BBE,5,1548724972000
1548724977390.6201171875,10,50.2600000000,A01BBE,5,1548724972000
1548724977406.2500000000,10,44.2100000000,A01BBE,5,1548724972000
1548724977421.8798828125,10,37.2500000000,A01BBE,5,1548724972000
1548724977437.5000000000,10,30.5600000000,A01BBE,5,1548724972000
1548724977453.1201171875,10,25.4500000000,A01BBE,5,1548724972000
1548724977468.7500000000,10,22.8000000000,A01BBE,5,1548724972000
1548724977484.3798828125,10,22.7500000000,A01BBE,5,1548724972000
1548724977500.0000000000,10,24.6200000000,A01BBE,5,1548724972000
1548724977515.6201171875,10,27.3300000000,A01BBE,5,1548724972000
1548724977531.2500000000,10,29.8900000000,A01BBE,5,1548724972000
1548724977546.8798828125,10,31.7600000000,A01BBE,5,1548724972000
1548724977562.5000000000,10,32.9900000000,A01BBE,5,1548724972000
1548724977578.1201171875,10,33.9200000000,A01BBE,5,1548724972000
1548724977593.7500000000,10,34.7500000000,A01BBE,5,1548724972000
1548724977609.3798828125,10,35.3500000000,A01BBE,5,1548724972000
1548724977625.0000000000,10,35.2200000000,A01BBE,5,1548724972000
1548724977640.6201171875,10,33.7300000000,A01BBE,5,1548724972000
1548724977656.2500000000,10,30.4800000000,A01BBE,5,1548724972000
1548724977671.8798828125,10,25.4900000000,A01BBE,5,1548724972000
1548724977687.5000000000,10,19.2200000000,A01BBE,5,1548724972000
1548724977703.1201171875,10,12.3300000000,A01BBE,5,1548724972000
1548724977718.7500000000,10,5.4700000000,A01BBE,5,1548724972000
1548724977734.3798828125,10,-0.8200000000,A01BBE,5,1548724972000
1548724977750.0000000000,10,-6.1800000000,A01BBE,5,1548724972000
1548724977765.6201171875,10,-10.1600000000,A01BBE,5,1548724972000
1548724977781.2500000000,10,-12.1200000000,A01BBE,5,1548724972000
1548724977796.8798828125,10,-11.2100000000,A01BBE,5,1548724972000
1548724977812.5000000000,10,-6.5900000000,A01BBE,5,1548724972000
1548724977828.1201171875,10,2.1800000000,A01BBE,5,1548724972000
1548724977843.7500000000,10,14.6900000000,A01BBE,5,1548724972000
1548724977859.3798828125,10,29.5600000000,A01BBE,5,1548724972000
1548724977875.0000000000,10,44.6600000000,A01BBE,5,1548724972000
1548724977890.6201171875,10,57.6500000000,A01BBE,5,1548724972000
1548724977906.2500000000,10,66.7200000000,A01BBE,5,1548724972000
1548724977921.8798828125,10,71.0000000000,A01BBE,5,1548724972000
1548724977937.5000000000,10,70.6600000000,A01BBE,5,1548724972000
1548724977953.1201171875,10,66.5600000000,A01BBE,5,1548724972000
1548724977968.7500000000,10,59.7500000000,A01BBE,5,1548724972000
1548724977984.3798828125,10,51.0800000000,A01BBE,5,1548724972000
1548724978000.0000000000,10,41.0900000000,A01BBE,5,1548724972000
1548724978015.6201171875,10,30.0500000000,A01BBE,5,1548724972000
1548724978031.2500000000,10,18.1400000000,A01BBE,5,1548724972000
1548724978046.8798828125,10,5.5400000000,A01BBE,5,1548724972000
1548724978062.5000000000,10,-7.5300000000,A01BBE,5,1548724972000
1548724978078.1201171875,10,-20.8600000000,A01BBE,5,1548724972000
1548724978093.7500000000,10,-34.1600000000,A01BBE,5,1548724972000
1548724978109.3798828125,10,-47.0200000000,A01BBE,5,1548724972000
1548724978125.0000000000,10,-58.7900000000,A01BBE,5,1548724972000
1548724978140.6201171875,10,-68.6900000000,A01BBE,5,1548724972000
1548724978156.2500000000,10,-75.9700000000,A01BBE,5,1548724972000
1548724978171.8798828125,10,-80.2900000000,A01BBE,5,1548724972000
1548724978187.5000000000,10,-81.8000000000,A01BBE,5,1548724972000
1548724978203.1201171875,10,-81.1800000000,A01BBE,5,1548724972000
1548724978218.7500000000,10,-79.3600000000,A01BBE,5,1548724972000
1548724978234.3798828125,10,-77.2500000000,A01BBE,5,1548724972000
1548724978250.0000000000,10,-75.4100000000,A01BBE,5,1548724972000
1548724978265.6201171875,10,-73.9800000000,A01BBE,5,1548724972000
1548724978281.2500000000,10,-72.7600000000,A01BBE,5,1548724972000
1548724978296.8798828125,10,-71.4600000000,A01BBE,5,1548724972000
1548724978312.5000000000,10,-69.9500000000,A01BBE,5,1548724972000
1548724978328.1201171875,10,-68.5100000000,A01BBE,5,1548724972000
1548724978343.7500000000,10,-67.6500000000,A01BBE,5,1548724972000
1548724978359.3798828125,10,-67.9800000000,A01BBE,5,1548724972000
1548724978375.0000000000,10,-69.8000000000,A01BBE,5,1548724972000
1548724978390.6201171875,10,-73.0000000000,A01BBE,5,1548724972000
1548724978406.2500000000,10,-77.0400000000,A01BBE,5,1548724972000
1548724978421.8798828125,10,-81.2500000000,A01BBE,5,1548724972000
1548724978437.5000000000,10,-85.1400000000,A01BBE,5,1548724972000
1548724978453.1201171875,10,-88.5000000000,A01BBE,5,1548724972000
1548724978468.7500000000,10,-91.3800000000,A01BBE,5,1548724972000
1548724978484.3798828125,10,-93.8200000000,A01BBE,5,1548724972000
1548724978500.0000000000,10,-95.6400000000,A01BBE,5,1548724972000
1548724978515.6201171875,10,-96.3400000000,A01BBE,5,1548724972000
1548724978531.2500000000,10,-95.2700000000,A01BBE,5,1548724972000
1548724978546.8798828125,10,-92.0200000000,A01BBE,5,1548724972000
1548724978562.5000000000,10,-86.5700000000,A01BBE,5,1548724972000
1548724978578.1201171875,10,-79.3300000000,A01BBE,5,1548724972000
1548724978593.7500000000,10,-70.9400000000,A01BBE,5,1548724972000
1548724978609.3798828125,10,-61.9700000000,A01BBE,5,1548724972000
1548724978625.0000000000,10,-52.7500000000,A01BBE,5,1548724972000
1548724978640.6201171875,10,-43.3100000000,A01BBE,5,1548724972000
1548724978656.2500000000,10,-33.5800000000,A01BBE,5,1548724972000
1548724978671.8798828125,10,-23.4800000000,A01BBE,5,1548724972000
1548724978687.5000000000,10,-13.0000000000,A01BBE,5,1548724972000
1548724978703.1201171875,10,-2.1300000000,A01BBE,5,1548724972000
1548724978718.7500000000,10,9.1400000000,A01BBE,5,1548724972000
1548724978734.3798828125,10,20.8000000000,A01BBE,5,1548724972000
1548724978750.0000000000,10,32.6500000000,A01BBE,5,1548724972000
1548724978765.6201171875,10,44.1700000000,A01BBE,5,1548724972000
1548724978781.2500000000,10,54.5500000000,A01BBE,5,1548724972000
1548724978796.8798828125,10,62.8600000000,A01BBE,5,1548724972000
1548724978812.5000000000,10,68.4500000000,A01BBE,5,1548724972000
1548724978828.1201171875,10,71.2400000000,A01BBE,5,1548724972000
1548724978843.7500000000,10,71.7700000000,A01BBE,5,1548724972000
1548724978859.3798828125,10,71.0700000000,A01BBE,5,1548724972000
1548724978875.0000000000,10,70.1900000000,A01BBE,5,1548724972000
1548724978890.6201171875,10,69.8500000000,A01BBE,5,1548724972000
1548724978906.2500000000,10,70.3400000000,A01BBE,5,1548724972000
1548724978921.8798828125,10,71.5500000000,A01BBE,5,1548724972000
1548724978937.5000000000,10,73.3100000000,A01BBE,5,1548724972000
1548724978953.1201171875,10,75.6000000000,A01BBE,5,1548724972000
1548724978968.7500000000,10,78.6100000000,A01BBE,5,1548724972000
1548724978984.3798828125,10,82.5800000000,A01BBE,5,1548724972000
1548724979000.0000000000,10,87.5400000000,A01BBE,5,1548724972000
1548724979015.6201171875,10,93.1000000000,A01BBE,5,1548724972000
1548724979031.2500000000,10,98.5900000000,A01BBE,5,1548724972000
1548724979046.8798828125,10,103.2800000000,A01BBE,5,1548724972000
1548724979062.5000000000,10,106.6500000000,A01BBE,5,1548724972000
1548724979078.1201171875,10,108.5200000000,A01BBE,5,1548724972000
1548724979093.7500000000,10,108.8300000000,A01BBE,5,1548724972000
1548724979109.3798828125,10,107.3800000000,A01BBE,5,1548724972000
1548724979125.0000000000,10,103.6600000000,A01BBE,5,1548724972000
1548724979140.6201171875,10,97.1900000000,A01BBE,5,1548724972000
1548724979156.2500000000,10,87.8500000000,A01BBE,5,1548724972000
1548724979171.8798828125,10,76.2800000000,A01BBE,5,1548724972000
1548724979187.5000000000,10,63.7600000000,A01BBE,5,1548724972000
1548724979203.1201171875,10,51.5900000000,A01BBE,5,1548724972000
1548724979218.7500000000,10,40.3800000000,A01BBE,5,1548724972000
1548724979234.3798828125,10,29.7000000000,A01BBE,5,1548724972000
1548724979250.0000000000,10,18.2600000000,A01BBE,5,1548724972000
1548724979265.6201171875,10,4.7300000000,A01BBE,5,1548724972000
1548724979281.2500000000,10,-11.3500000000,A01BBE,5,1548724972000
1548724979296.8798828125,10,-29.2800000000,A01BBE,5,1548724972000
1548724979312.5000000000,10,-47.3900000000,A01BBE,5,1548724972000
1548724979328.1201171875,10,-63.8800000000,A01BBE,5,1548724972000
1548724979343.7500000000,10,-77.6200000000,A01BBE,5,1548724972000
1548724979359.3798828125,10,-88.5300000000,A01BBE,5,1548724972000
1548724979375.0000000000,10,-97.4100000000,A01BBE,5,1548724972000
1548724979390.6201171875,10,-105.3100000000,A01BBE,5,1548724972000
1548724979406.2500000000,10,-112.9800000000,A01BBE,5,1548724972000
1548724979421.8798828125,10,-120.4900000000,A01BBE,5,1548724972000
1548724979437.5000000000,10,-127.2400000000,A01BBE,5,1548724972000
1548724979453.1201171875,10,-132.2100000000,A01BBE,5,1548724972000
1548724979468.7500000000,10,-134.4400000000,A01BBE,5,1548724972000
1548724979484.3798828125,10,-133.4400000000,A01BBE,5,1548724972000
1548724979500.0000000000,10,-129.4700000000,A01BBE,5,1548724972000
1548724979515.6201171875,10,-123.5700000000,A01BBE,5,1548724972000
1548724979531.2500000000,10,-117.1600000000,A01BBE,5,1548724972000
1548724979546.8798828125,10,-111.5900000000,A01BBE,5,1548724972000
1548724979562.5000000000,10,-107.7200000000,A01BBE,5,1548724972000
1548724979578.1201171875,10,-105.7000000000,A01BBE,5,1548724972000
1548724979593.7500000000,10,-105.2400000000,A01BBE,5,1548724972000
1548724979609.3798828125,10,-105.9200000000,A01BBE,5,1548724972000
1548724979625.0000000000,10,-107.6000000000,A01BBE,5,1548724972000
1548724979640.6201171875,10,-110.3600000000,A01BBE,5,1548724972000
1548724979656.2500000000,10,-114.2500000000,A01BBE,5,1548724972000
1548724979671.8798828125,10,-118.8900000000,A01BBE,5,1548724972000
1548724979687.5000000000,10,-123.2500000000,A01BBE,5,1548724972000
1548724979703.1201171875,10,-125.8600000000,A01BBE,5,1548724972000
1548724979718.7500000000,10,-125.4700000000,A01BBE,5,1548724972000
1548724979734.3798828125,10,-121.6300000000,A01BBE,5,1548724972000
1548724979750.0000000000,10,-115.0300000000,A01BBE,5,1548724972000
1548724979765.6201171875,10,-107.0900000000,A01BBE,5,1548724972000
1548724979781.2500000000,10,-99.2000000000,A01BBE,5,1548724972000
1548724979796.8798828125,10,-91.8900000000,A01BBE,5,1548724972000
1548724979812.5000000000,10,-84.6000000000,A01BBE,5,1548724972000
1548724979828.1201171875,10,-76.1500000000,A01BBE,5,1548724972000
1548724979843.7500000000,10,-65.6900000000,A01BBE,5,1548724972000
1548724979859.3798828125,10,-53.4900000000,A01BBE,5,1548724972000
1548724979875.0000000000,10,-41.1000000000,A01BBE,5,1548724972000
1548724979890.6201171875,10,-30.5900000000,A01BBE,5,1548724972000
1548724979906.2500000000,10,-23.4900000000,A01BBE,5,1548724972000
1548724979921.8798828125,10,-19.7600000000,A01BBE,5,1548724972000
1548724979937.5000000000,10,-17.8800000000,A01BBE,5,1548724972000
1548724979953.1201171875,10,-15.7300000000,A01BBE,5,1548724972000
1548724979968.7500000000,10,-11.9500000000,A01BBE,5,1548724972000
1548724979984.3798828125,10,-6.7500000000,A01BBE,5,1548724972000
1548724980000.0000000000,10,-1.8800000000,A01BBE,5,1548724972000
1548724980015.6201171875,10,0.3800000000,A01BBE,5,1548724972000
1548724980031.2500000000,10,-1.4500000000,A01BBE,5,1548724972000
1548724980046.8798828125,10,-7.3100000000,A01BBE,5,1548724972000
1548724980062.5000000000,10,-15.6500000000,A01BBE,5,1548724972000
1548724980078.1201171875,10,-24.3100000000,A01BBE,5,1548724972000
1548724980093.7500000000,10,-31.5500000000,A01BBE,5,1548724972000
1548724980109.3798828125,10,-36.6400000000,A01BBE,5,1548724972000
1548724980125.0000000000,10,-39.7800000000,A01BBE,5,1548724972000
1548724980140.6201171875,10,-41.5200000000,A01BBE,5,1548724972000
1548724980156.2500000000,10,-42.1600000000,A01BBE,5,1548724972000
1548724980171.8798828125,10,-41.5600000000,A01BBE,5,1548724972000
1548724980187.5000000000,10,-39.4900000000,A01BBE,5,1548724972000
1548724980203.1201171875,10,-35.9800000000,A01BBE,5,1548724972000
1548724980218.7500000000,10,-31.6700000000,A01BBE,5,1548724972000
1548724980234.3798828125,10,-27.6000000000,A01BBE,5,1548724972000
1548724980250.0000000000,10,-24.8000000000,A01BBE,5,1548724972000
1548724980265.6201171875,10,-23.7900000000,A01BBE,5,1548724972000
1548724980281.2500000000,10,-24.2500000000,A01BBE,5,1548724972000
1548724980296.8798828125,10,-25.2200000000,A01BBE,5,1548724972000
1548724980312.5000000000,10,-25.3500000000,A01BBE,5,1548724972000
1548724980328.1201171875,10,-23.5300000000,A01BBE,5,1548724972000
1548724980343.7500000000,10,-19.1900000000,A01BBE,5,1548724972000
1548724980359.3798828125,10,-12.4800000000,A01BBE,5,1548724972000
1548724980375.0000000000,10,-3.9900000000,A01BBE,5,1548724972000
1548724980390.6201171875,10,5.4700000000,A01BBE,5,1548724972000
1548724980406.2500000000,10,15.4500000000,A01BBE,5,1548724972000
1548724980421.8798828125,10,26.0400000000,A01BBE,5,1548724972000
1548724980437.5000000000,10,37.8700000000,A01BBE,5,1548724972000
1548724980453.1201171875,10,51.8200000000,A01BBE,5,1548724972000
1548724980468.7500000000,10,68.5200000000,A01BBE,5,1548724972000
1548724980484.3798828125,10,87.8500000000,A01BBE,5,1548724972000
1548724980500.0000000000,10,108.8200000000,A01BBE,5,1548724972000
1548724980515.6201171875,10,129.8100000000,A01BBE,5,1548724972000
1548724980531.2500000000,10,149.0200000000,A01BBE,5,1548724972000
1548724980546.8798828125,10,165.0900000000,A01BBE,5,1548724972000
1548724980562.5000000000,10,177.3600000000,A01BBE,5,1548724972000
1548724980578.1201171875,10,185.8300000000,A01BBE,5,1548724972000
1548724980593.7500000000,10,190.9000000000,A01BBE,5,1548724972000
1548724980609.3798828125,10,192.9900000000,A01BBE,5,1548724972000
1548724980625.0000000000,10,192.3600000000,A01BBE,5,1548724972000
1548724980640.6201171875,10,189.2900000000,A01BBE,5,1548724972000
1548724980656.2500000000,10,184.2000000000,A01BBE,5,1548724972000
1548724980671.8798828125,10,177.7600000000,A01BBE,5,1548724972000
1548724980687.5000000000,10,170.7400000000,A01BBE,5,1548724972000
1548724980703.1201171875,10,163.7800000000,A01BBE,5,1548724972000
1548724980718.7500000000,10,157.1700000000,A01BBE,5,1548724972000
1548724980734.3798828125,10,150.9300000000,A01BBE,5,1548724972000
1548724980750.0000000000,10,145.0000000000,A01BBE,5,1548724972000
1548724980765.6201171875,10,139.4600000000,A01BBE,5,1548724972000
1548724980781.2500000000,10,134.6300000000,A01BBE,5,1548724972000
1548724980796.8798828125,10,130.8700000000,A01BBE,5,1548724972000
1548724980812.5000000000,10,128.4800000000,A01BBE,5,1548724972000
1548724980828.1201171875,10,127.5100000000,A01BBE,5,1548724972000
1548724980843.7500000000,10,127.7700000000,A01BBE,5,1548724972000
1548724980859.3798828125,10,128.8000000000,A01BBE,5,1548724972000
1548724980875.0000000000,10,129.8800000000,A01BBE,5,1548724972000
1548724980890.6201171875,10,129.9300000000,A01BBE,5,1548724972000
1548724980906.2500000000,10,127.5900000000,A01BBE,5,1548724972000
1548724980921.8798828125,10,121.6400000000,A01BBE,5,1548724972000
1548724980937.5000000000,10,111.5200000000,A01BBE,5,1548724972000
1548724980953.1201171875,10,97.9300000000,A01BBE,5,1548724972000
1548724980968.7500000000,10,82.8900000000,A01BBE,5,1548724972000
1548724980984.3798828125,10,69.1000000000,A01BBE,5,1548724972000
1548724981000.0000000000,10,58.9700000000,A01BBE,5,1548724972000
1548724981015.6201171875,10,53.6200000000,A01BBE,5,1548724972000
1548724981031.2500000000,10,52.4400000000,A01BBE,5,1548724972000
1548724981046.8798828125,10,53.4800000000,A01BBE,5,1548724972000
1548724981062.5000000000,10,54.4000000000,A01BBE,5,1548724972000
1548724981078.1201171875,10,53.3600000000,A01BBE,5,1548724972000
1548724981093.7500000000,10,49.5800000000,A01BBE,5,1548724972000
1548724981109.3798828125,10,43.3100000000,A01BBE,5,1548724972000
1548724981125.0000000000,10,35.4000000000,A01BBE,5,1548724972000
1548724981140.6201171875,10,26.9500000000,A01BBE,5,1548724972000
1548724981156.2500000000,10,19.0700000000,A01BBE,5,1548724972000
1548724981171.8798828125,10,12.7900000000,A01BBE,5,1548724972000
1548724981187.5000000000,10,8.8500000000,A01BBE,5,1548724972000
1548724981203.1201171875,10,7.4600000000,A01BBE,5,1548724972000
1548724981218.7500000000,10,7.9600000000,A01BBE,5,1548724972000
1548724981234.3798828125,10,8.9500000000,A01BBE,5,1548724972000
1548724981250.0000000000,10,8.7400000000,A01BBE,5,1548724972000
1548724981265.6201171875,10,6.0200000000,A01BBE,5,1548724972000
1548724981281.2500000000,10,0.5700000000,A01BBE,5,1548724972000
1548724981296.8798828125,10,-6.7800000000,A01BBE,5,1548724972000
1548724981312.5000000000,10,-14.6500000000,A01BBE,5,1548724972000
1548724981328.1201171875,10,-21.8700000000,A01BBE,5,1548724972000
1548724981343.7500000000,10,-28.2000000000,A01BBE,5,1548724972000
1548724981359.3798828125,10,-34.2700000000,A01BBE,5,1548724972000
1548724981375.0000000000,10,-41.1700000000,A01BBE,5,1548724972000
1548724981390.6201171875,10,-49.6800000000,A01BBE,5,1548724972000
1548724981406.2500000000,10,-59.7800000000,A01BBE,5,1548724972000
1548724981421.8798828125,10,-70.5700000000,A01BBE,5,1548724972000
1548724981437.5000000000,10,-80.7100000000,A01BBE,5,1548724972000
1548724981453.1201171875,10,-89.0800000000,A01BBE,5,1548724972000
1548724981468.7500000000,10,-95.1100000000,A01BBE,5,1548724972000
1548724981484.3798828125,10,-98.9600000000,A01BBE,5,1548724972000
1548724981500.0000000000,10,-101.2800000000,A01BBE,5,1548724972000
1548724981515.6201171875,10,-102.7400000000,A01BBE,5,1548724972000
1548724981531.2500000000,10,-103.6900000000,A01BBE,5,1548724972000
1548724981546.8798828125,10,-103.8500000000,A01BBE,5,1548724972000
1548724981562.5000000000,10,-102.4200000000,A01BBE,5,1548724972000
1548724981578.1201171875,10,-98.2900000000,A01BBE,5,1548724972000
1548724981593.7500000000,10,-90.4000000000,A01BBE,5,1548724972000
1548724981609.3798828125,10,-78.0500000000,A01BBE,5,1548724972000
1548724981625.0000000000,10,-61.1500000000,A01BBE,5,1548724972000
1548724981640.6201171875,10,-40.2600000000,A01BBE,5,1548724972000
1548724981656.2500000000,10,-16.5300000000,A01BBE,5,1548724972000
1548724981671.8798828125,10,8.2900000000,A01BBE,5,1548724972000
1548724981687.5000000000,10,32.0800000000,A01BBE,5,1548724972000
1548724981703.1201171875,10,52.4600000000,A01BBE,5,1548724972000
1548724981718.7500000000,10,67.3000000000,A01BBE,5,1548724972000
1548724981734.3798828125,10,75.1600000000,A01BBE,5,1548724972000
1548724981750.0000000000,10,75.8600000000,A01BBE,5,1548724972000
1548724981765.6201171875,10,70.4800000000,A01BBE,5,1548724972000
1548724981781.2500000000,10,61.1600000000,A01BBE,5,1548724972000
1548724981796.8798828125,10,50.4300000000,A01BBE,5,1548724972000
1548724981812.5000000000,10,40.4100000000,A01BBE,5,1548724972000
1548724981828.1201171875,10,32.3500000000,A01BBE,5,1548724972000
1548724981843.7500000000,10,26.4800000000,A01BBE,5,1548724972000
1548724981859.3798828125,10,22.2000000000,A01BBE,5,1548724972000
1548724981875.0000000000,10,18.6000000000,A01BBE,5,1548724972000
1548724981890.6201171875,10,14.8400000000,A01BBE,5,1548724972000
1548724981906.2500000000,10,10.4400000000,A01BBE,5,1548724972000
1548724981921.8798828125,10,5.2800000000,A01BBE,5,1548724972000
1548724981937.5000000000,10,-0.3600000000,A01BBE,5,1548724972000
1548724981953.1201171875,10,-6.1400000000,A01BBE,5,1548724972000
1548724981968.7500000000,10,-11.6400000000,A01BBE,5,1548724972000
1548724981984.3798828125,10,-16.5800000000,A01BBE,5,1548724972000
1548724982000.0000000000,10,-20.7700000000,A01BBE,5,1548724972000
1548724982015.6201171875,10,-24.1300000000,A01BBE,5,1548724972000
1548724982031.2500000000,10,-26.6600000000,A01BBE,5,1548724972000
1548724982046.8798828125,10,-28.3600000000,A01BBE,5,1548724972000
1548724982062.5000000000,10,-29.2200000000,A01BBE,5,1548724972000
1548724982078.1201171875,10,-29.3100000000,A01BBE,5,1548724972000
1548724982093.7500000000,10,-28.6800000000,A01BBE,5,1548724972000
1548724982109.3798828125,10,-27.3800000000,A01BBE,5,1548724972000
1548724982125.0000000000,10,-25.4100000000,A01BBE,5,1548724972000
1548724982140.6201171875,10,-22.6800000000,A01BBE,5,1548724972000
1548724982156.2500000000,10,-19.2000000000,A01BBE,5,1548724972000
1548724982171.8798828125,10,-15.1300000000,A01BBE,5,1548724972000
1548724982187.5000000000,10,-10.8600000000,A01BBE,5,1548724972000
1548724982203.1201171875,10,-7.0100000000,A01BBE,5,1548724972000
1548724982218.7500000000,10,-4.1500000000,A01BBE,5,1548724972000
1548724982234.3798828125,10,-2.6400000000,A01BBE,5,1548724972000
1548724982250.0000000000,10,-2.4800000000,A01BBE,5,1548724972000
1548724982265.6201171875,10,-3.3100000000,A01BBE,5,1548724972000
1548724982281.2500000000,10,-4.5800000000,A01BBE,5,1548724972000
1548724982296.8798828125,10,-5.7300000000,A01BBE,5,1548724972000
1548724982312.5000000000,10,-6.2600000000,A01BBE,5,1548724972000
1548724982328.1201171875,10,-5.8600000000,A01BBE,5,1548724972000
1548724982343.7500000000,10,-4.3300000000,A01BBE,5,1548724972000
1548724982359.3798828125,10,-1.7000000000,A01BBE,5,1548724972000
1548724982375.0000000000,10,1.9500000000,A01BBE,5,1548724972000
1548724982390.6201171875,10,6.4700000000,A01BBE,5,1548724972000
1548724982406.2500000000,10,11.8000000000,A01BBE,5,1548724972000
1548724982421.8798828125,10,18.0700000000,A01BBE,5,1548724972000
1548724982437.5000000000,10,25.4700000000,A01BBE,5,1548724972000
1548724982453.1201171875,10,34.1800000000,A01BBE,5,1548724972000
1548724982468.7500000000,10,44.0900000000,A01BBE,5,1548724972000
1548724982484.3798828125,10,54.6600000000,A01BBE,5,1548724972000
1548724982500.0000000000,10,65.0800000000,A01BBE,5,1548724972000
1548724982515.6201171875,10,74.3500000000,A01BBE,5,1548724972000
1548724982531.2500000000,10,81.5200000000,A01BBE,5,1548724972000
1548724982546.8798828125,10,85.7400000000,A01BBE,5,1548724972000
1548724982562.5000000000,10,86.2700000000,A01BBE,5,1548724972000
1548724982578.1201171875,10,82.4100000000,A01BBE,5,1548724972000
1548724982593.7500000000,10,73.8300000000,A01BBE,5,1548724972000
1548724982609.3798828125,10,60.7800000000,A01BBE,5,1548724972000
1548724982625.0000000000,10,44.2700000000,A01BBE,5,1548724972000
1548724982640.6201171875,10,26.0800000000,A01BBE,5,1548724972000
1548724982656.2500000000,10,8.2000000000,A01BBE,5,1548724972000
1548724982671.8798828125,10,-7.7400000000,A01BBE,5,1548724972000
1548724982687.5000000000,10,-20.9400000000,A01BBE,5,1548724972000
1548724982703.1201171875,10,-31.6600000000,A01BBE,5,1548724972000
1548724982718.7500000000,10,-40.9400000000,A01BBE,5,1548724972000
1548724982734.3798828125,10,-50.1300000000,A01BBE,5,1548724972000
1548724982750.0000000000,10,-60.4100000000,A01BBE,5,1548724972000
1548724982765.6201171875,10,-72.3500000000,A01BBE,5,1548724972000
1548724982781.2500000000,10,-85.8500000000,A01BBE,5,1548724972000
1548724982796.8798828125,10,-100.1700000000,A01BBE,5,1548724972000
1548724982812.5000000000,10,-113.9900000000,A01BBE,5,1548724972000
1548724982828.1201171875,10,-125.6900000000,A01BBE,5,1548724972000
1548724982843.7500000000,10,-133.5700000000,A01BBE,5,1548724972000
1548724982859.3798828125,10,-136.2600000000,A01BBE,5,1548724972000
1548724982875.0000000000,10,-133.1400000000,A01BBE,5,1548724972000
1548724982890.6201171875,10,-124.7100000000,A01BBE,5,1548724972000
1548724982906.2500000000,10,-112.5200000000,A01BBE,5,1548724972000
1548724982921.8798828125,10,-98.8300000000,A01BBE,5,1548724972000
1548724982937.5000000000,10,-86.0300000000,A01BBE,5,1548724972000
1548724982953.1201171875,10,-75.9300000000,A01BBE,5,1548724972000
1548724982968.7500000000,10,-69.4100000000,A01BBE,5,1548724972000
1548724982984.3798828125,10,-66.2600000000,A01BBE,5,1548724972000
1548724983000.0000000000,10,-65.4000000000,A01BBE,5,1548724972000
1548724983015.6201171875,10,-65.2200000000,A01BBE,5,1548724972000
1548724983031.2500000000,10,-64.0500000000,A01BBE,5,1548724972000
1548724983046.8798828125,10,-60.5800000000,A01BBE,5,1548724972000
1548724983062.5000000000,10,-54.2000000000,A01BBE,5,1548724972000
1548724983078.1201171875,10,-45.1400000000,A01BBE,5,1548724972000
1548724983093.7500000000,10,-34.1400000000,A01BBE,5,1548724972000
1548724983109.3798828125,10,-21.9200000000,A01BBE,5,1548724972000
1548724983125.0000000000,10,-8.6900000000,A01BBE,5,1548724972000
1548724983140.6201171875,10,6.0200000000,A01BBE,5,1548724972000
1548724983156.2500000000,10,22.9700000000,A01BBE,5,1548724972000
1548724983171.8798828125,10,42.4400000000,A01BBE,5,1548724972000
1548724983187.5000000000,10,63.6900000000,A01BBE,5,1548724972000
1548724983203.1201171875,10,84.8800000000,A01BBE,5,1548724972000
1548724983218.7500000000,10,103.6700000000,A01BBE,5,1548724972000
1548724983234.3798828125,10,118.0100000000,A01BBE,5,1548724972000
1548724983250.0000000000,10,126.6900000000,A01BBE,5,1548724972000
1548724983265.6201171875,10,129.4400000000,A01BBE,5,1548724972000
1548724983281.2500000000,10,126.6500000000,A01BBE,5,1548724972000
1548724983296.8798828125,10,119.0300000000,A01BBE,5,1548724972000
1548724983312.5000000000,10,107.3400000000,A01BBE,5,1548724972000
1548724983328.1201171875,10,92.4400000000,A01BBE,5,1548724972000
1548724983343.7500000000,10,75.2100000000,A01BBE,5,1548724972000
1548724983359.3798828125,10,56.4700000000,A01BBE,5,1548724972000
1548724983375.0000000000,10,36.8300000000,A01BBE,5,1548724972000
1548724983390.6201171875,10,16.6000000000,A01BBE,5,1548724972000
1548724983406.2500000000,10,-4.0100000000,A01BBE,5,1548724972000
1548724983421.8798828125,10,-24.5900000000,A01BBE,5,1548724972000
1548724983437.5000000000,10,-44.3800000000,A01BBE,5,1548724972000
1548724983453.1201171875,10,-62.3800000000,A01BBE,5,1548724972000
1548724983468.7500000000,10,-77.7000000000,A01BBE,5,1548724972000
1548724983484.3798828125,10,-89.9000000000,A01BBE,5,1548724972000
1548724983500.0000000000,10,-98.9300000000,A01BBE,5,1548724972000
1548724983515.6201171875,10,-104.9800000000,A01BBE,5,1548724972000
1548724983531.2500000000,10,-108.1000000000,A01BBE,5,1548724972000
1548724983546.8798828125,10,-108.1900000000,A01BBE,5,1548724972000
1548724983562.5000000000,10,-105.1500000000,A01BBE,5,1548724972000
1548724983578.1201171875,10,-99.1200000000,A01BBE,5,1548724972000
1548724983593.7500000000,10,-90.6900000000,A01BBE,5,1548724972000
1548724983609.3798828125,10,-80.7600000000,A01BBE,5,1548724972000
1548724983625.0000000000,10,-70.2900000000,A01BBE,5,1548724972000
1548724983640.6201171875,10,-60.0400000000,A01BBE,5,1548724972000
1548724983656.2500000000,10,-50.3900000000,A01BBE,5,1548724972000
1548724983671.8798828125,10,-41.4200000000,A01BBE,5,1548724972000
1548724983687.5000000000,10,-33.0700000000,A01BBE,5,1548724972000
1548724983703.1201171875,10,-25.4200000000,A01BBE,5,1548724972000
1548724983718.7500000000,10,-18.6700000000,A01BBE,5,1548724972000
1548724983734.3798828125,10,-13.0500000000,A01BBE,5,1548724972000
1548724983750.0000000000,10,-8.6900000000,A01BBE,5,1548724972000
1548724983765.6201171875,10,-5.4500000000,A01BBE,5,1548724972000
1548724983781.2500000000,10,-2.9700000000,A01BBE,5,1548724972000
1548724983796.8798828125,10,-0.7200000000,A01BBE,5,1548724972000
1548724983812.5000000000,10,1.6800000000,A01BBE,5,1548724972000
1548724983828.1201171875,10,4.3700000000,A01BBE,5,1548724972000
1548724983843.7500000000,10,7.1600000000,A01BBE,5,1548724972000
1548724983859.3798828125,10,9.7100000000,A01BBE,5,1548724972000
1548724983875.0000000000,10,11.7400000000,A01BBE,5,1548724972000
1548724983890.6201171875,10,13.3500000000,A01BBE,5,1548724972000
1548724983906.2500000000,10,15.1000000000,A01BBE,5,1548724972000
1548724983921.8798828125,10,17.9000000000,A01BBE,5,1548724972000
1548724983937.5000000000,10,22.7200000000,A01BBE,5,1548724972000
1548724983953.1201171875,10,30.2100000000,A01BBE,5,1548724972000
1548724983968.7500000000,10,40.3600000000,A01BBE,5,1548724972000
1548724983984.3798828125,10,52.3500000000,A01BBE,5,1548724972000
1548724984000.0000000000,10,64.8100000000,A01BBE,5,1548724972000
1548724984015.6201171875,10,76.1200000000,A01BBE,5,1548724972000
1548724984031.2500000000,10,85.0200000000,A01BBE,5,1548724972000
1548724984046.8798828125,10,91.0200000000,A01BBE,5,1548724972000
1548724984062.5000000000,10,94.5300000000,A01BBE,5,1548724972000
1548724984078.1201171875,10,96.8700000000,A01BBE,5,1548724972000
1548724984093.7500000000,10,99.7900000000,A01BBE,5,1548724972000
1548724984109.3798828125,10,105.0400000000,A01BBE,5,1548724972000
1548724984125.0000000000,10,113.6500000000,A01BBE,5,1548724972000
1548724984140.6201171875,10,125.3600000000,A01BBE,5,1548724972000
1548724984156.2500000000,10,138.3700000000,A01BBE,5,1548724972000
1548724984171.8798828125,10,149.5900000000,A01BBE,5,1548724972000
1548724984187.5000000000,10,155.5500000000,A01BBE,5,1548724972000
1548724984203.1201171875,10,153.7500000000,A01BBE,5,1548724972000
1548724984218.7500000000,10,143.7700000000,A01BBE,5,1548724972000
1548724984234.3798828125,10,127.7400000000,A01BBE,5,1548724972000
1548724984250.0000000000,10,109.6000000000,A01BBE,5,1548724972000
1548724984265.6201171875,10,93.3400000000,A01BBE,5,1548724972000
1548724984281.2500000000,10,81.2700000000,A01BBE,5,1548724972000
1548724984296.8798828125,10,73.0300000000,A01BBE,5,1548724972000
1548724984312.5000000000,10,65.9200000000,A01BBE,5,1548724972000
1548724984328.1201171875,10,56.5400000000,A01BBE,5,1548724972000
1548724984343.7500000000,10,42.6700000000,A01BBE,5,1548724972000
1548724984359.3798828125,10,24.4800000000,A01BBE,5,1548724972000
1548724984375.0000000000,10,4.1700000000,A01BBE,5,1548724972000
1548724984390.6201171875,10,-15.2900000000,A01BBE,5,1548724972000
1548724984406.2500000000,10,-31.8100000000,A01BBE,5,1548724972000
1548724984421.8798828125,10,-45.0400000000,A01BBE,5,1548724972000
1548724984437.5000000000,10,-56.2500000000,A01BBE,5,1548724972000
1548724984453.1201171875,10,-67.2500000000,A01BBE,5,1548724972000
1548724984468.7500000000,10,-79.2100000000,A01BBE,5,1548724972000
1548724984484.3798828125,10,-92.0400000000,A01BBE,5,1548724972000
1548724984500.0000000000,10,-104.4800000000,A01BBE,5,1548724972000
1548724984515.6201171875,10,-114.7800000000,A01BBE,5,1548724972000
1548724984531.2500000000,10,-121.6500000000,A01BBE,5,1548724972000
1548724984546.8798828125,10,-124.7600000000,A01BBE,5,1548724972000
1548724984562.5000000000,10,-124.8700000000,A01BBE,5,1548724972000
1548724984578.1201171875,10,-123.4200000000,A01BBE,5,1548724972000
1548724984593.7500000000,10,-121.9900000000,A01BBE,5,1548724972000
1548724984609.3798828125,10,-121.8800000000,A01BBE,5,1548724972000
1548724984625.0000000000,10,-123.8300000000,A01BBE,5,1548724972000
1548724984640.6201171875,10,-128.1300000000,A01BBE,5,1548724972000
1548724984656.2500000000,10,-134.7400000000,A01BBE,5,1548724972000
1548724984671.8798828125,10,-143.4400000000,A01BBE,5,1548724972000
1548724984687.5000000000,10,-153.5200000000,A01BBE,5,1548724972000
1548724984703.1201171875,10,-163.6000000000,A01BBE,5,1548724972000
1548724984718.7500000000,10,-171.5600000000,A01BBE,5,1548724972000
1548724984734.3798828125,10,-175.1300000000,A01BBE,5,1548724972000
1548724984750.0000000000,10,-172.8600000000,A01BBE,5,1548724972000
1548724984765.6201171875,10,-165.1400000000,A01BBE,5,1548724972000
1548724984781.2500000000,10,-154.5500000000,A01BBE,5,1548724972000
1548724984796.8798828125,10,-145.0000000000,A01BBE,5,1548724972000
1548724984812.5000000000,10,-140.0400000000,A01BBE,5,1548724972000
1548724984828.1201171875,10,-140.9600000000,A01BBE,5,1548724972000
1548724984843.7500000000,10,-145.8400000000,A01BBE,5,1548724972000
1548724984859.3798828125,10,-150.1800000000,A01BBE,5,1548724972000
1548724984875.0000000000,10,-148.9100000000,A01BBE,5,1548724972000
1548724984890.6201171875,10,-138.8300000000,A01BBE,5,1548724972000
1548724984906.2500000000,10,-120.0100000000,A01BBE,5,1548724972000
1548724984921.8798828125,10,-95.6100000000,A01BBE,5,1548724972000
1548724984937.5000000000,10,-70.2700000000,A01BBE,5,1548724972000
1548724984953.1201171875,10,-47.9900000000,A01BBE,5,1548724972000
1548724984968.7500000000,10,-30.9600000000,A01BBE,5,1548724972000
1548724984984.3798828125,10,-19.5900000000,A01BBE,5,1548724972000
1548724985000.0000000000,10,-13.5800000000,A01BBE,5,1548724972000
1548724985015.6201171875,10,-12.8800000000,A01BBE,5,1548724972000
1548724985031.2500000000,10,-17.9700000000,A01BBE,5,1548724972000
1548724985046.8798828125,10,-29.2000000000,A01BBE,5,1548724972000
1548724985062.5000000000,10,-45.8000000000,A01BBE,5,1548724972000
1548724985078.1201171875,10,-65.3500000000,A01BBE,5,1548724972000
1548724985093.7500000000,10,-84.1300000000,A01BBE,5,1548724972000
1548724985109.3798828125,10,-98.4600000000,A01BBE,5,1548724972000
1548724985125.0000000000,10,-106.0000000000,A01BBE,5,1548724972000
1548724985140.6201171875,10,-106.5200000000,A01BBE,5,1548724972000
1548724985156.2500000000,10,-101.5500000000,A01BBE,5,1548724972000
1548724985171.8798828125,10,-93.5300000000,A01BBE,5,1548724972000
1548724985187.5000000000,10,-84.6400000000,A01BBE,5,1548724972000
1548724985203.1201171875,10,-76.1400000000,A01BBE,5,1548724972000
1548724985218.7500000000,10,-68.3800000000,A01BBE,5,1548724972000
1548724985234.3798828125,10,-61.2800000000,A01BBE,5,1548724972000
1548724985250.0000000000,10,-54.8300000000,A01BBE,5,1548724972000
1548724985265.6201171875,10,-49.4400000000,A01BBE,5,1548724972000
1548724985281.2500000000,10,-45.9500000000,A01BBE,5,1548724972000
1548724985296.8798828125,10,-45.3600000000,A01BBE,5,1548724972000
1548724985312.5000000000,10,-48.5200000000,A01BBE,5,1548724972000
1548724985328.1201171875,10,-55.8200000000,A01BBE,5,1548724972000
1548724985343.7500000000,10,-66.9000000000,A01BBE,5,1548724972000
1548724985359.3798828125,10,-80.5400000000,A01BBE,5,1548724972000
1548724985375.0000000000,10,-94.6800000000,A01BBE,5,1548724972000
1548724985390.6201171875,10,-106.9000000000,A01BBE,5,1548724972000
1548724985406.2500000000,10,-115.0500000000,A01BBE,5,1548724972000
1548724985421.8798828125,10,-118.0500000000,A01BBE,5,1548724972000
1548724985437.5000000000,10,-116.3400000000,A01BBE,5,1548724972000
1548724985453.1201171875,10,-111.7500000000,A01BBE,5,1548724972000
1548724985468.7500000000,10,-106.5400000000,A01BBE,5,1548724972000
1548724985484.3798828125,10,-102.4200000000,A01BBE,5,1548724972000
1548724985500.0000000000,10,-99.5700000000,A01BBE,5,1548724972000
1548724985515.6201171875,10,-96.5700000000,A01BBE,5,1548724972000
1548724985531.2500000000,10,-91.0900000000,A01BBE,5,1548724972000
1548724985546.8798828125,10,-81.0000000000,A01BBE,5,1548724972000
1548724985562.5000000000,10,-65.3500000000,A01BBE,5,1548724972000
1548724985578.1201171875,10,-44.5600000000,A01BBE,5,1548724972000
1548724985593.7500000000,10,-20.1100000000,A01BBE,5,1548724972000
1548724985609.3798828125,10,6.1400000000,A01BBE,5,1548724972000
1548724985625.0000000000,10,32.5200000000,A01BBE,5,1548724972000
1548724985640.6201171875,10,57.7200000000,A01BBE,5,1548724972000
1548724985656.2500000000,10,80.6700000000,A01BBE,5,1548724972000
1548724985671.8798828125,10,100.4600000000,A01BBE,5,1548724972000
1548724985687.5000000000,10,116.4500000000,A01BBE,5,1548724972000
1548724985703.1201171875,10,128.5900000000,A01BBE,5,1548724972000
1548724985718.7500000000,10,137.5800000000,A01BBE,5,1548724972000
1548724985734.3798828125,10,145.0700000000,A01BBE,5,1548724972000
1548724985750.0000000000,10,153.1700000000,A01BBE,5,1548724972000
1548724985765.6201171875,10,163.8500000000,A01BBE,5,1548724972000
1548724985781.2500000000,10,178.0100000000,A01BBE,5,1548724972000
1548724985796.8798828125,10,194.9000000000,A01BBE,5,1548724972000
1548724985812.5000000000,10,211.6800000000,A01BBE,5,1548724972000
1548724985828.1201171875,10,223.7900000000,A01BBE,5,1548724972000
1548724985843.7500000000,10,226.0700000000,A01BBE,5,1548724972000
1548724985859.3798828125,10,214.8100000000,A01BBE,5,1548724972000
1548724985875.0000000000,10,189.5300000000,A01BBE,5,1548724972000
1548724985890.6201171875,10,153.8200000000,A01BBE,5,1548724972000
1548724985906.2500000000,10,114.5000000000,A01BBE,5,1548724972000
1548724985921.8798828125,10,79.2500000000,A01BBE,5,1548724972000
1548724985937.5000000000,10,53.9100000000,A01BBE,5,1548724972000
1548724985953.1201171875,10,40.7800000000,A01BBE,5,1548724972000
1548724985968.7500000000,10,38.7300000000,A01BBE,5,1548724972000
1548724985984.3798828125,10,44.7600000000,A01BBE,5,1548724972000
1548724986000.0000000000,10,55.6900000000,A01BBE,5,1548724972000
1548724986015.6201171875,10,69.1400000000,A01BBE,5,1548724972000
1548724986031.2500000000,10,83.3800000000,A01BBE,5,1548724972000
1548724986046.8798828125,10,96.5000000000,A01BBE,5,1548724972000
1548724986062.5000000000,10,105.9800000000,A01BBE,5,1548724972000
1548724986078.1201171875,10,109.2300000000,A01BBE,5,1548724972000
1548724986093.7500000000,10,104.7200000000,A01BBE,5,1548724972000
1548724986109.3798828125,10,92.8600000000,A01BBE,5,1548724972000
1548724986125.0000000000,10,76.0500000000,A01BBE,5,1548724972000
1548724986140.6201171875,10,57.7100000000,A01BBE,5,1548724972000
1548724986156.2500000000,10,40.8800000000,A01BBE,5,1548724972000
1548724986171.8798828125,10,27.2600000000,A01BBE,5,1548724972000
1548724986187.5000000000,10,17.2400000000,A01BBE,5,1548724972000
1548724986203.1201171875,10,10.4700000000,A01BBE,5,1548724972000
1548724986218.7500000000,10,6.5600000000,A01BBE,5,1548724972000
1548724986234.3798828125,10,5.5200000000,A01BBE,5,1548724972000
1548724986250.0000000000,10,7.6100000000,A01BBE,5,1548724972000
1548724986265.6201171875,10,13.0200000000,A01BBE,5,1548724972000
1548724986281.2500000000,10,21.4500000000,A01BBE,5,1548724972000
1548724986296.8798828125,10,31.9700000000,A01BBE,5,1548724972000
1548724986312.5000000000,10,43.3500000000,A01BBE,5,1548724972000
1548724986328.1201171875,10,54.4100000000,A01BBE,5,1548724972000
1548724986343.7500000000,10,64.3400000000,A01BBE,5,1548724972000
1548724986359.3798828125,10,72.7900000000,A01BBE,5,1548724972000
1548724986375.0000000000,10,79.7400000000,A01BBE,5,1548724972000
1548724986390.6201171875,10,85.2100000000,A01BBE,5,1548724972000
1548724986406.2500000000,10,89.1500000000,A01BBE,5,1548724972000
1548724986421.8798828125,10,91.6100000000,A01BBE,5,1548724972000
1548724986437.5000000000,10,92.9500000000,A01BBE,5,1548724972000
1548724986453.1201171875,10,93.9100000000,A01BBE,5,1548724972000
1548724986468.7500000000,10,95.4300000000,A01BBE,5,1548724972000
1548724986484.3798828125,10,98.2800000000,A01BBE,5,1548724972000
1548724986500.0000000000,10,102.8200000000,A01BBE,5,1548724972000
1548724986515.6201171875,10,108.7100000000,A01BBE,5,1548724972000
1548724986531.2500000000,10,115.0800000000,A01BBE,5,1548724972000
1548724986546.8798828125,10,120.7200000000,A01BBE,5,1548724972000
1548724986562.5000000000,10,124.4900000000,A01BBE,5,1548724972000
1548724986578.1201171875,10,125.5900000000,A01BBE,5,1548724972000
1548724986593.7500000000,10,123.7300000000,A01BBE,5,1548724972000
1548724986609.3798828125,10,119.0700000000,A01BBE,5,1548724972000
1548724986625.0000000000,10,111.9500000000,A01BBE,5,1548724972000
1548724986640.6201171875,10,102.7000000000,A01BBE,5,1548724972000
1548724986656.2500000000,10,91.7200000000,A01BBE,5,1548724972000
1548724986671.8798828125,10,79.6400000000,A01BBE,5,1548724972000
1548724986687.5000000000,10,67.6700000000,A01BBE,5,1548724972000
1548724986703.1201171875,10,57.6000000000,A01BBE,5,1548724972000
1548724986718.7500000000,10,51.2600000000,A01BBE,5,1548724972000
1548724986734.3798828125,10,49.8200000000,A01BBE,5,1548724972000
1548724986750.0000000000,10,52.8300000000,A01BBE,5,1548724972000
1548724986765.6201171875,10,58.1600000000,A01BBE,5,1548724972000
1548724986781.2500000000,10,62.6600000000,A01BBE,5,1548724972000
1548724986796.8798828125,10,63.4500000000,A01BBE,5,1548724972000
1548724986812.5000000000,10,59.1900000000,A01BBE,5,1548724972000
1548724986828.1201171875,10,50.6500000000,A01BBE,5,1548724972000
1548724986843.7500000000,10,40.1200000000,A01BBE,5,1548724972000
1548724986859.3798828125,10,30.2500000000,A01BBE,5,1548724972000
1548724986875.0000000000,10,22.8700000000,A01BBE,5,1548724972000
1548724986890.6201171875,10,18.4500000000,A01BBE,5,1548724972000
1548724986906.2500000000,10,16.3600000000,A01BBE,5,1548724972000
1548724986921.8798828125,10,15.4700000000,A01BBE,5,1548724972000
1548724986937.5000000000,10,14.8100000000,A01BBE,5,1548724972000
1548724986953.1201171875,10,13.6500000000,A01BBE,5,1548724972000
1548724986968.7500000000,10,11.5600000000,A01BBE,5,1548724972000
1548724986984.3798828125,10,8.1800000000,A01BBE,5,1548724972000
1548724987000.0000000000,10,3.3700000000,A01BBE,5,1548724972000
1548724987015.6201171875,10,-2.5800000000,A01BBE,5,1548724972000
1548724987031.2500000000,10,-8.7300000000,A01BBE,5,1548724972000
1548724987046.8798828125,10,-13.5500000000,A01BBE,5,1548724972000
1548724987062.5000000000,10,-15.4100000000,A01BBE,5,1548724972000
1548724987078.1201171875,10,-13.2000000000,A01BBE,5,1548724972000
1548724987093.7500000000,10,-6.8200000000,A01BBE,5,1548724972000
1548724987109.3798828125,10,2.7900000000,A01BBE,5,1548724972000
1548724987125.0000000000,10,13.8900000000,A01BBE,5,1548724972000
1548724987140.6201171875,10,24.4400000000,A01BBE,5,1548724972000
1548724987156.2500000000,10,32.4800000000,A01BBE,5,1548724972000
1548724987171.8798828125,10,36.4100000000,A01BBE,5,1548724972000
1548724987187.5000000000,10,35.3400000000,A01BBE,5,1548724972000
1548724987203.1201171875,10,29.3400000000,A01BBE,5,1548724972000
1548724987218.7500000000,10,19.5400000000,A01BBE,5,1548724972000
1548724987234.3798828125,10,7.9900000000,A01BBE,5,1548724972000
1548724987250.0000000000,10,-3.0300000000,A01BBE,5,1548724972000
1548724987265.6201171875,10,-11.8500000000,A01BBE,5,1548724972000
1548724987281.2500000000,10,-17.8900000000,A01BBE,5,1548724972000
1548724987296.8798828125,10,-21.5800000000,A01BBE,5,1548724972000
1548724987312.5000000000,10,-23.8100000000,A01BBE,5,1548724972000
1548724987328.1201171875,10,-25.2600000000,A01BBE,5,1548724972000
1548724987343.7500000000,10,-26.1000000000,A01BBE,5,1548724972000
1548724987359.3798828125,10,-26.3400000000,A01BBE,5,1548724972000
1548724987375.0000000000,10,-26.4800000000,A01BBE,5,1548724972000
1548724987390.6201171875,10,-27.8000000000,A01BBE,5,1548724972000
1548724987406.2500000000,10,-32.1100000000,A01BBE,5,1548724972000
1548724987421.8798828125,10,-40.7100000000,A01BBE,5,1548724972000
1548724987437.5000000000,10,-53.3700000000,A01BBE,5,1548724972000
1548724987453.1201171875,10,-67.9900000000,A01BBE,5,1548724972000
1548724987468.7500000000,10,-81.2400000000,A01BBE,5,1548724972000
1548724987484.3798828125,10,-89.7300000000,A01BBE,5,1548724972000
1548724987500.0000000000,10,-91.3800000000,A01BBE,5,1548724972000
1548724987515.6201171875,10,-86.0900000000,A01BBE,5,1548724972000
1548724987531.2500000000,10,-75.6300000000,A01BBE,5,1548724972000
1548724987546.8798828125,10,-62.9100000000,A01BBE,5,1548724972000
1548724987562.5000000000,10,-51.0300000000,A01BBE,5,1548724972000
1548724987578.1201171875,10,-42.3900000000,A01BBE,5,1548724972000
1548724987593.7500000000,10,-38.2200000000,A01BBE,5,1548724972000
1548724987609.3798828125,10,-38.3500000000,A01BBE,5,1548724972000
1548724987625.0000000000,10,-41.4100000000,A01BBE,5,1548724972000
1548724987640.6201171875,10,-45.3600000000,A01BBE,5,1548724972000
1548724987656.2500000000,10,-48.0400000000,A01BBE,5,1548724972000
1548724987671.8798828125,10,-47.7600000000,A01BBE,5,1548724972000
1548724987687.5000000000,10,-43.5600000000,A01BBE,5,1548724972000
1548724987703.1201171875,10,-35.3200000000,A01BBE,5,1548724972000
1548724987718.7500000000,10,-23.5600000000,A01BBE,5,1548724972000
1548724987734.3798828125,10,-9.2300000000,A01BBE,5,1548724972000
1548724987750.0000000000,10,6.3700000000,A01BBE,5,1548724972000
1548724987765.6201171875,10,21.7000000000,A01BBE,5,1548724972000
1548724987781.2500000000,10,35.1600000000,A01BBE,5,1548724972000
1548724987796.8798828125,10,45.3400000000,A01BBE,5,1548724972000
1548724987812.5000000000,10,51.3400000000,A01BBE,5,1548724972000
1548724987828.1201171875,10,53.0800000000,A01BBE,5,1548724972000
1548724987843.7500000000,10,51.2600000000,A01BBE,5,1548724972000
1548724987859.3798828125,10,47.1300000000,A01BBE,5,1548724972000
1548724987875.0000000000,10,42.0400000000,A01BBE,5,1548724972000
1548724987890.6201171875,10,37.0400000000,A01BBE,5,1548724972000
1548724987906.2500000000,10,32.5900000000,A01BBE,5,1548724972000
1548724987921.8798828125,10,28.5000000000,A01BBE,5,1548724972000
1548724987937.5000000000,10,24.1500000000,A01BBE,5,1548724972000
1548724987953.1201171875,10,18.8700000000,A01BBE,5,1548724972000
1548724987968.7500000000,10,12.2000000000,A01BBE,5,1548724972000
1548724987984.3798828125,10,4.1800000000,A01BBE,5,1548724972000
1548724988000.0000000000,10,-4.7600000000,A01BBE,5,1548724972000
1548724988015.6201171875,10,-13.8600000000,A01BBE,5,1548724972000
1548724988031.2500000000,10,-22.3400000000,A01BBE,5,1548724972000
1548724988046.8798828125,10,-29.4900000000,A01BBE,5,1548724972000
1548724988062.5000000000,10,-34.8900000000,A01BBE,5,1548724972000
1548724988078.1201171875,10,-38.4000000000,A01BBE,5,1548724972000
1548724988093.7500000000,10,-40.2700000000,A01BBE,5,1548724972000
1548724988109.3798828125,10,-41.1000000000,A01BBE,5,1548724972000
1548724988125.0000000000,10,-41.7200000000,A01BBE,5,1548724972000
1548724988140.6201171875,10,-42.9300000000,A01BBE,5,1548724972000
1548724988156.2500000000,10,-45.1600000000,A01BBE,5,1548724972000
1548724988171.8798828125,10,-48.2300000000,A01BBE,5,1548724972000
1548724988187.5000000000,10,-51.3800000000,A01BBE,5,1548724972000
1548724988203.1201171875,10,-53.7400000000,A01BBE,5,1548724972000
1548724988218.7500000000,10,-54.8300000000,A01BBE,5,1548724972000
1548724988234.3798828125,10,-54.8800000000,A01BBE,5,1548724972000
1548724988250.0000000000,10,-54.8000000000,A01BBE,5,1548724972000
1548724988265.6201171875,10,-55.7000000000,A01BBE,5,1548724972000
1548724988281.2500000000,10,-58.3000000000,A01BBE,5,1548724972000
1548724988296.8798828125,10,-62.5500000000,A01BBE,5,1548724972000
1548724988312.5000000000,10,-67.5600000000,A01BBE,5,1548724972000
1548724988328.1201171875,10,-72.0300000000,A01BBE,5,1548724972000
1548724988343.7500000000,10,-74.7000000000,A01BBE,5,1548724972000
1548724988359.3798828125,10,-74.7900000000,A01BBE,5,1548724972000
1548724988375.0000000000,10,-72.1500000000,A01BBE,5,1548724972000
1548724988390.6201171875,10,-67.1400000000,A01BBE,5,1548724972000
1548724988406.2500000000,10,-60.4900000000,A01BBE,5,1548724972000
1548724988421.8798828125,10,-53.0000000000,A01BBE,5,1548724972000
1548724988437.5000000000,10,-45.4300000000,A01BBE,5,1548724972000
1548724988453.1201171875,10,-38.3800000000,A01BBE,5,1548724972000
1548724988468.7500000000,10,-32.1900000000,A01BBE,5,1548724972000
1548724988484.3798828125,10,-26.9800000000,A01BBE,5,1548724972000
1548724988500.0000000000,10,-22.6500000000,A01BBE,5,1548724972000
1548724988515.6201171875,10,-18.9800000000,A01BBE,5,1548724972000
1548724988531.2500000000,10,-15.8100000000,A01BBE,5,1548724972000
1548724988546.8798828125,10,-13.0000000000,A01BBE,5,1548724972000
1548724988562.5000000000,10,-10.4800000000,A01BBE,5,1548724972000
1548724988578.1201171875,10,-8.1600000000,A01BBE,5,1548724972000
1548724988593.7500000000,10,-5.8400000000,A01BBE,5,1548724972000
1548724988609.3798828125,10,-3.2300000000,A01BBE,5,1548724972000
1548724988625.0000000000,10,-0.0600000000,A01BBE,5,1548724972000
1548724988640.6201171875,10,3.7500000000,A01BBE,5,1548724972000
1548724988656.2500000000,10,7.8900000000,A01BBE,5,1548724972000
1548724988671.8798828125,10,11.6800000000,A01BBE,5,1548724972000
1548724988687.5000000000,10,14.1800000000,A01BBE,5,1548724972000
1548724988703.1201171875,10,14.6700000000,A01BBE,5,1548724972000
1548724988718.7500000000,10,12.9600000000,A01BBE,5,1548724972000
1548724988734.3798828125,10,9.6500000000,A01BBE,5,1548724972000
1548724988750.0000000000,10,5.9600000000,A01BBE,5,1548724972000
1548724988765.6201171875,10,3.3500000000,A01BBE,5,1548724972000
1548724988781.2500000000,10,2.9500000000,A01BBE,5,1548724972000
1548724988796.8798828125,10,5.0800000000,A01BBE,5,1548724972000
1548724988812.5000000000,10,9.2200000000,A01BBE,5,1548724972000
1548724988828.1201171875,10,14.2400000000,A01BBE,5,1548724972000
1548724988843.7500000000,10,18.8100000000,A01BBE,5,1548724972000
1548724988859.3798828125,10,21.8200000000,A01BBE,5,1548724972000
1548724988875.0000000000,10,22.5500000000,A01BBE,5,1548724972000
1548724988890.6201171875,10,20.7500000000,A01BBE,5,1548724972000
1548724988906.2500000000,10,16.5200000000,A01BBE,5,1548724972000
1548724988921.8798828125,10,10.1900000000,A01BBE,5,1548724972000
1548724988937.5000000000,10,2.2800000000,A01BBE,5,1548724972000
1548724988953.1201171875,10,-6.5800000000,A01BBE,5,1548724972000
1548724988968.7500000000,10,-15.7100000000,A01BBE,5,1548724972000
1548724988984.3798828125,10,-24.4800000000,A01BBE,5,1548724972000
1548724989000.0000000000,10,-32.3900000000,A01BBE,5,1548724972000
1548724989015.6201171875,10,-39.1300000000,A01BBE,5,1548724972000
1548724989031.2500000000,10,-44.4500000000,A01BBE,5,1548724972000
1548724989046.8798828125,10,-48.1000000000,A01BBE,5,1548724972000
1548724989062.5000000000,10,-49.7400000000,A01BBE,5,1548724972000
1548724989078.1201171875,10,-48.9200000000,A01BBE,5,1548724972000
1548724989093.7500000000,10,-45.3500000000,A01BBE,5,1548724972000
1548724989109.3798828125,10,-39.0000000000,A01BBE,5,1548724972000
1548724989125.0000000000,10,-30.3900000000,A01BBE,5,1548724972000
1548724989140.6201171875,10,-20.5000000000,A01BBE,5,1548724972000
1548724989156.2500000000,10,-10.5500000000,A01BBE,5,1548724972000
1548724989171.8798828125,10,-1.5900000000,A01BBE,5,1548724972000
1548724989187.5000000000,10,5.8700000000,A01BBE,5,1548724972000
1548724989203.1201171875,10,11.9500000000,A01BBE,5,1548724972000
1548724989218.7500000000,10,17.2200000000,A01BBE,5,1548724972000
1548724989234.3798828125,10,22.2500000000,A01BBE,5,1548724972000
1548724989250.0000000000,10,27.2300000000,A01BBE,5,1548724972000
1548724989265.6201171875,10,31.8700000000,A01BBE,5,1548724972000
1548724989281.2500000000,10,35.6400000000,A01BBE,5,1548724972000
1548724989296.8798828125,10,38.0800000000,A01BBE,5,1548724972000
1548724989312.5000000000,10,39.2100000000,A01BBE,5,1548724972000
1548724989328.1201171875,10,39.4400000000,A01BBE,5,1548724972000
1548724989343.7500000000,10,39.4000000000,A01BBE,5,1548724972000
1548724989359.3798828125,10,39.5000000000,A01BBE,5,1548724972000
1548724989375.0000000000,10,39.6700000000,A01BBE,5,1548724972000
1548724989390.6201171875,10,39.4300000000,A01BBE,5,1548724972000
1548724989406.2500000000,10,38.2600000000,A01BBE,5,1548724972000
1548724989421.8798828125,10,36.1300000000,A01BBE,5,1548724972000
1548724989437.5000000000,10,33.6200000000,A01BBE,5,1548724972000
1548724989453.1201171875,10,31.7400000000,A01BBE,5,1548724972000
1548724989468.7500000000,10,31.3000000000,A01BBE,5,1548724972000
1548724989484.3798828125,10,32.3400000000,A01BBE,5,1548724972000
1548724989500.0000000000,10,33.9800000000,A01BBE,5,1548724972000
1548724989515.6201171875,10,34.9300000000,A01BBE,5,1548724972000
1548724989531.2500000000,10,34.2500000000,A01BBE,5,1548724972000
1548724989546.8798828125,10,31.8300000000,A01BBE,5,1548724972000
1548724989562.5000000000,10,28.4000000000,A01BBE,5,1548724972000
1548724989578.1201171875,10,24.8900000000,A01BBE,5,1548724972000
1548724989593.7500000000,10,21.7900000000,A01BBE,5,1548724972000
1548724989609.3798828125,10,18.9100000000,A01BBE,5,1548724972000
1548724989625.0000000000,10,15.7200000000,A01BBE,5,1548724972000
1548724989640.6201171875,10,11.9600000000,A01BBE,5,1548724972000
1548724989656.2500000000,10,8.0000000000,A01BBE,5,1548724972000
1548724989671.8798828125,10,4.7900000000,A01BBE,5,1548724972000
1548724989687.5000000000,10,3.2200000000,A01BBE,5,1548724972000
1548724989703.1201171875,10,3.4000000000,A01BBE,5,1548724972000
1548724989718.7500000000,10,4.5100000000,A01BBE,5,1548724972000
1548724989734.3798828125,10,5.1600000000,A01BBE,5,1548724972000
1548724989750.0000000000,10,4.2600000000,A01BBE,5,1548724972000
1548724989765.6201171875,10,1.5700000000,A01BBE,5,1548724972000
1548724989781.2500000000,10,-2.1500000000,A01BBE,5,1548724972000
1548724989796.8798828125,10,-5.7200000000,A01BBE,5,1548724972000
1548724989812.5000000000,10,-8.2600000000,A01BBE,5,1548724972000
1548724989828.1201171875,10,-9.7900000000,A01BBE,5,1548724972000
1548724989843.7500000000,10,-11.3000000000,A01BBE,5,1548724972000
1548724989859.3798828125,10,-14.3500000000,A01BBE,5,1548724972000
1548724989875.0000000000,10,-20.2400000000,A01BBE,5,1548724972000
1548724989890.6201171875,10,-29.4600000000,A01BBE,5,1548724972000
1548724989906.2500000000,10,-41.3100000000,A01BBE,5,1548724972000
1548724989921.8798828125,10,-54.1400000000,A01BBE,5,1548724972000
1548724989937.5000000000,10,-65.9600000000,A01BBE,5,1548724972000
1548724989953.1201171875,10,-75.2400000000,A01BBE,5,1548724972000
1548724989968.7500000000,10,-81.3300000000,A01BBE,5,1548724972000
1548724989984.3798828125,10,-84.5700000000,A01BBE,5,1548724972000
1548724990000.0000000000,10,-85.8200000000,A01BBE,5,1548724972000
1548724990015.6201171875,10,-85.9100000000,A01BBE,5,1548724972000
1548724990031.2500000000,10,-85.2400000000,A01BBE,5,1548724972000
1548724990046.8798828125,10,-83.6800000000,A01BBE,5,1548724972000
1548724990062.5000000000,10,-80.7700000000,A01BBE,5,1548724972000
1548724990078.1201171875,10,-76.1100000000,A01BBE,5,1548724972000
1548724990093.7500000000,10,-69.6800000000,A01BBE,5,1548724972000
1548724990109.3798828125,10,-61.8300000000,A01BBE,5,1548724972000
1548724990125.0000000000,10,-53.2400000000,A01BBE,5,1548724972000
1548724990140.6201171875,10,-44.6800000000,A01BBE,5,1548724972000
1548724990156.2500000000,10,-36.8200000000,A01BBE,5,1548724972000
1548724990171.8798828125,10,-30.1300000000,A01BBE,5,1548724972000
1548724990187.5000000000,10,-24.8500000000,A01BBE,5,1548724972000
1548724990203.1201171875,10,-21.0700000000,A01BBE,5,1548724972000
1548724990218.7500000000,10,-18.8100000000,A01BBE,5,1548724972000
1548724990234.3798828125,10,-18.0300000000,A01BBE,5,1548724972000
1548724990250.0000000000,10,-18.7200000000,A01BBE,5,1548724972000
1548724990265.6201171875,10,-20.8700000000,A01BBE,5,1548724972000
1548724990281.2500000000,10,-24.4400000000,A01BBE,5,1548724972000
1548724990296.8798828125,10,-29.2200000000,A01BBE,5,1548724972000
1548724990312.5000000000,10,-34.8700000000,A01BBE,5,1548724972000
1548724990328.1201171875,10,-40.9400000000,A01BBE,5,1548724972000
1548724990343.7500000000,10,-46.9700000000,A01BBE,5,1548724972000
1548724990359.3798828125,10,-52.7000000000,A01BBE,5,1548724972000
1548724990375.0000000000,10,-58.0500000000,A01BBE,5,1548724972000
1548724990390.6201171875,10,-63.1400000000,A01BBE,5,1548724972000
1548724990406.2500000000,10,-68.0800000000,A01BBE,5,1548724972000
1548724990421.8798828125,10,-72.9600000000,A01BBE,5,1548724972000
1548724990437.5000000000,10,-77.8000000000,A01BBE,5,1548724972000
1548724990453.1201171875,10,-82.6700000000,A01BBE,5,1548724972000
1548724990468.7500000000,10,-87.6500000000,A01BBE,5,1548724972000
1548724990484.3798828125,10,-92.7700000000,A01BBE,5,1548724972000
1548724990500.0000000000,10,-97.7500000000,A01BBE,5,1548724972000
1548724990515.6201171875,10,-101.8600000000,A01BBE,5,1548724972000
1548724990531.2500000000,10,-103.9500000000,A01BBE,5,1548724972000
1548724990546.8798828125,10,-102.8000000000,A01BBE,5,1548724972000
1548724990562.5000000000,10,-97.4200000000,A01BBE,5,1548724972000
1548724990578.1201171875,10,-87.5100000000,A01BBE,5,1548724972000
1548724990593.7500000000,10,-73.6200000000,A01BBE,5,1548724972000
1548724990609.3798828125,10,-56.9400000000,A01BBE,5,1548724972000
1548724990625.0000000000,10,-39.0400000000,A01BBE,5,1548724972000
1548724990640.6201171875,10,-21.4900000000,A01BBE,5,1548724972000
1548724990656.2500000000,10,-5.5400000000,A01BBE,5,1548724972000
1548724990671.8798828125,10,8.0300000000,A01BBE,5,1548724972000
1548724990687.5000000000,10,18.9200000000,A01BBE,5,1548724972000
1548724990703.1201171875,10,27.1800000000,A01BBE,5,1548724972000
1548724990718.7500000000,10,33.1200000000,A01BBE,5,1548724972000
1548724990734.3798828125,10,37.1100000000,A01BBE,5,1548724972000
1548724990750.0000000000,10,39.5700000000,A01BBE,5,1548724972000
1548724990765.6201171875,10,40.9300000000,A01BBE,5,1548724972000
1548724990781.2500000000,10,41.6900000000,A01BBE,5,1548724972000
1548724990796.8798828125,10,42.3500000000,A01BBE,5,1548724972000
1548724990812.5000000000,10,43.4100000000,A01BBE,5,1548724972000
1548724990828.1201171875,10,45.1000000000,A01BBE,5,1548724972000
1548724990843.7500000000,10,47.4100000000,A01BBE,5,1548724972000
1548724990859.3798828125,10,50.0300000000,A01BBE,5,1548724972000
1548724990875.0000000000,10,52.5200000000,A01BBE,5,1548724972000
1548724990890.6201171875,10,54.4900000000,A01BBE,5,1548724972000
1548724990906.2500000000,10,55.8000000000,A01BBE,5,1548724972000
1548724990921.8798828125,10,56.5400000000,A01BBE,5,1548724972000
1548724990937.5000000000,10,56.8800000000,A01BBE,5,1548724972000
1548724990953.1201171875,10,56.9700000000,A01BBE,5,1548724972000
1548724990968.7500000000,10,56.6400000000,A01BBE,5,1548724972000
1548724990984.3798828125,10,55.5400000000,A01BBE,5,1548724972000
1548724991000.0000000000,10,53.1500000000,A01BBE,5,1548724972000
1548724991015.6201171875,10,49.0900000000,A01BBE,5,1548724972000
1548724991031.2500000000,10,43.3300000000,A01BBE,5,1548724972000
1548724991046.8798828125,10,36.1700000000,A01BBE,5,1548724972000
1548724991062.5000000000,10,28.2200000000,A01BBE,5,1548724972000
1548724991078.1201171875,10,20.1500000000,A01BBE,5,1548724972000
1548724991093.7500000000,10,12.5000000000,A01BBE,5,1548724972000
1548724991109.3798828125,10,5.5800000000,A01BBE,5,1548724972000
1548724991125.0000000000,10,-0.5800000000,A01BBE,5,1548724972000
1548724991140.6201171875,10,-6.1500000000,A01BBE,5,1548724972000
1548724991156.2500000000,10,-11.4700000000,A01BBE,5,1548724972000
1548724991171.8798828125,10,-17.0000000000,A01BBE,5,1548724972000
1548724991187.5000000000,10,-23.1600000000,A01BBE,5,1548724972000
1548724991203.1201171875,10,-30.1000000000,A01BBE,5,1548724972000
1548724991218.7500000000,10,-37.5000000000,A01BBE,5,1548724972000
1548724991234.3798828125,10,-44.3700000000,A01BBE,5,1548724972000
1548724991250.0000000000,10,-49.2700000000,A01BBE,5,1548724972000
1548724991265.6201171875,10,-50.8100000000,A01BBE,5,1548724972000
1548724991281.2500000000,10,-48.0400000000,A01BBE,5,1548724972000
1548724991296.8798828125,10,-40.9300000000,A01BBE,5,1548724972000
1548724991312.5000000000,10,-30.2200000000,A01BBE,5,1548724972000
1548724991328.1201171875,10,-17.0900000000,A01BBE,5,1548724972000
1548724991343.7500000000,10,-2.7400000000,A01BBE,5,1548724972000
1548724991359.3798828125,10,11.8400000000,A01BBE,5,1548724972000
1548724991375.0000000000,10,25.9100000000,A01BBE,5,1548724972000
1548724991390.6201171875,10,38.7700000000,A01BBE,5,1548724972000
1548724991406.2500000000,10,49.7000000000,A01BBE,5,1548724972000
1548724991421.8798828125,10,58.0800000000,A01BBE,5,1548724972000
1548724991437.5000000000,10,63.5900000000,A01BBE,5,1548724972000
1548724991453.1201171875,10,66.4000000000,A01BBE,5,1548724972000
1548724991468.7500000000,10,67.1200000000,A01BBE,5,1548724972000
1548724991484.3798828125,10,66.5800000000,A01BBE,5,1548724972000
1548724991500.0000000000,10,65.5600000000,A01BBE,5,1548724972000
1548724991515.6201171875,10,64.6000000000,A01BBE,5,1548724972000
1548724991531.2500000000,10,64.0400000000,A01BBE,5,1548724972000
1548724991546.8798828125,10,64.1000000000,A01BBE,5,1548724972000
1548724991562.5000000000,10,65.0100000000,A01BBE,5,1548724972000
1548724991578.1201171875,10,67.0100000000,A01BBE,5,1548724972000
1548724991593.7500000000,10,70.2300000000,A01BBE,5,1548724972000
1548724991609.3798828125,10,74.5200000000,A01BBE,5,1548724972000
1548724991625.0000000000,10,79.4500000000,A01BBE,5,1548724972000
1548724991640.6201171875,10,84.3600000000,A01BBE,5,1548724972000
1548724991656.2500000000,10,88.6100000000,A01BBE,5,1548724972000
1548724991671.8798828125,10,91.7800000000,A01BBE,5,1548724972000
1548724991687.5000000000,10,93.8000000000,A01BBE,5,1548724972000
1548724991703.1201171875,10,94.9500000000,A01BBE,5,1548724972000
1548724991718.7500000000,10,95.5700000000,A01BBE,5,1548724972000
1548724991734.3798828125,10,95.8700000000,A01BBE,5,1548724972000
1548724991750.0000000000,10,95.7000000000,A01BBE,5,1548724972000
1548724991765.6201171875,10,94.6200000000,A01BBE,5,1548724972000
1548724991781.2500000000,10,92.1800000000,A01BBE,5,1548724972000
1548724991796.8798828125,10,88.1800000000,A01BBE,5,1548724972000
1548724991812.5000000000,10,82.9200000000,A01BBE,5,1548724972000
1548724991828.1201171875,10,77.1200000000,A01BBE,5,1548724972000
1548724991843.7500000000,10,71.6100000000,A01BBE,5,1548724972000
1548724991859.3798828125,10,66.9600000000,A01BBE,5,1548724972000
1548724991875.0000000000,10,63.2900000000,A01BBE,5,1548724972000
1548724991890.6201171875,10,60.2500000000,A01BBE,5,1548724972000
1548724991906.2500000000,10,57.2300000000,A01BBE,5,1548724972000
1548724991921.8798828125,10,53.6800000000,A01BBE,5,1548724972000
1548724991937.5000000000,10,49.3000000000,A01BBE,5,1548724972000
1548724991953.1201171875,10,44.1600000000,A01BBE,5,1548724972000
1548724991968.7500000000,10,38.6100000000,A01BBE,5,1548724972000
1548724991984.3798828125,10,33.2400000000,A01BBE,5,1548724972000
1548724992000.0000000000,10,28.7300000000,A01BBE,5,1548724972000
1548724992015.6201171875,10,25.7300000000,A01BBE,5,1548724972000
1548724992031.2500000000,10,24.6300000000,A01BBE,5,1548724972000
1548724992046.8798828125,10,25.5200000000,A01BBE,5,1548724972000
1548724992062.5000000000,10,27.9400000000,A01BBE,5,1548724972000
1548724992078.1201171875,10,31.0700000000,A01BBE,5,1548724972000
1548724992093.7500000000,10,33.8600000000,A01BBE,5,1548724972000
1548724992109.3798828125,10,35.3200000000,A01BBE,5,1548724972000
1548724992125.0000000000,10,34.8200000000,A01BBE,5,1548724972000
1548724992140.6201171875,10,32.3000000000,A01BBE,5,1548724972000
1548724992156.2500000000,10,28.2900000000,A01BBE,5,1548724972000
1548724992171.8798828125,10,23.6700000000,A01BBE,5,1548724972000
1548724992187.5000000000,10,19.2700000000,A01BBE,5,1548724972000
1548724992203.1201171875,10,15.5200000000,A01BBE,5,1548724972000
1548724992218.7500000000,10,12.2200000000,A01BBE,5,1548724972000
1548724992234.3798828125,10,8.8400000000,A01BBE,5,1548724972000
1548724992250.0000000000,10,4.9200000000,A01BBE,5,1548724972000
1548724992265.6201171875,10,0.5600000000,A01BBE,5,1548724972000
1548724992281.2500000000,10,-3.5000000000,A01BBE,5,1548724972000
1548724992296.8798828125,10,-6.2000000000,A01BBE,5,1548724972000
1548724992312.5000000000,10,-6.8100000000,A01BBE,5,1548724972000
1548724992328.1201171875,10,-5.4500000000,A01BBE,5,1548724972000
1548724992343.7500000000,10,-3.1400000000,A01BBE,5,1548724972000
1548724992359.3798828125,10,-1.4100000000,A01BBE,5,1548724972000
1548724992375.0000000000,10,-1.4900000000,A01BBE,5,1548724972000
1548724992390.6201171875,10,-3.7300000000,A01BBE,5,1548724972000
1548724992406.2500000000,10,-7.4600000000,A01BBE,5,1548724972000
1548724992421.8798828125,10,-11.3800000000,A01BBE,5,1548724972000
1548724992437.5000000000,10,-14.0800000000,A01BBE,5,1548724972000
1548724992453.1201171875,10,-14.6000000000,A01BBE,5,1548724972000
1548724992468.7500000000,10,-12.5700000000,A01BBE,5,1548724972000
1548724992484.3798828125,10,-8.1800000000,A01BBE,5,1548724972000
1548724992500.0000000000,10,-1.9600000000,A01BBE,5,1548724972000
1548724992515.6201171875,10,5.3700000000,A01BBE,5,1548724972000
1548724992531.2500000000,10,13.0600000000,A01BBE,5,1548724972000
1548724992546.8798828125,10,20.4300000000,A01BBE,5,1548724972000
1548724992562.5000000000,10,26.8500000000,A01BBE,5,1548724972000
1548724992578.1201171875,10,31.7300000000,A01BBE,5,1548724972000
1548724992593.7500000000,10,34.5700000000,A01BBE,5,1548724972000
1548724992609.3798828125,10,34.9000000000,A01BBE,5,1548724972000
1548724992625.0000000000,10,32.4500000000,A01BBE,5,1548724972000
1548724992640.6201171875,10,27.2200000000,A01BBE,5,1548724972000
1548724992656.2500000000,10,19.5200000000,A01BBE,5,1548724972000
1548724992671.8798828125,10,10.0100000000,A01BBE,5,1548724972000
1548724992687.5000000000,10,-0.5300000000,A01BBE,5,1548724972000
1548724992703.1201171875,10,-11.2700000000,A01BBE,5,1548724972000
1548724992718.7500000000,10,-21.5300000000,A01BBE,5,1548724972000
1548724992734.3798828125,10,-30.7000000000,A01BBE,5,1548724972000
1548724992750.0000000000,10,-38.1800000000,A01BBE,5,1548724972000
1548724992765.6201171875,10,-43.3700000000,A01BBE,5,1548724972000
1548724992781.2500000000,10,-45.7400000000,A01BBE,5,1548724972000
1548724992796.8798828125,10,-44.9700000000,A01BBE,5,1548724972000
1548724992812.5000000000,10,-41.1500000000,A01BBE,5,1548724972000
1548724992828.1201171875,10,-34.8100000000,A01BBE,5,1548724972000
1548724992843.7500000000,10,-26.8200000000,A01BBE,5,1548724972000
1548724992859.3798828125,10,-18.1900000000,A01BBE,5,1548724972000
1548724992875.0000000000,10,-9.7300000000,A01BBE,5,1548724972000
1548724992890.6201171875,10,-2.0000000000,A01BBE,5,1548724972000
1548724992906.2500000000,10,4.8300000000,A01BBE,5,1548724972000
1548724992921.8798828125,10,10.7900000000,A01BBE,5,1548724972000
1548724992937.5000000000,10,16.0500000000,A01BBE,5,1548724972000
1548724992953.1201171875,10,20.7800000000,A01BBE,5,1548724972000
1548724992968.7500000000,10,25.0600000000,A01BBE,5,1548724972000
1548724992984.3798828125,10,28.8200000000,A01BBE,5,1548724972000
1548724993000.0000000000,10,31.8300000000,A01BBE,5,1548724972000
1548724993015.6201171875,10,33.7500000000,A01BBE,5,1548724972000
1548724993031.2500000000,10,34.2700000000,A01BBE,5,1548724972000
1548724993046.8798828125,10,33.2700000000,A01BBE,5,1548724972000
1548724993062.5000000000,10,31.0200000000,A01BBE,5,1548724972000
1548724993078.1201171875,10,28.1000000000,A01BBE,5,1548724972000
1548724993093.7500000000,10,25.1500000000,A01BBE,5,1548724972000
1548724993109.3798828125,10,22.3300000000,A01BBE,5,1548724972000
1548724993125.0000000000,10,19.0800000000,A01BBE,5,1548724972000
1548724993140.6201171875,10,14.2100000000,A01BBE,5,1548724972000
1548724993156.2500000000,10,6.5700000000,A01BBE,5,1548724972000
1548724993171.8798828125,10,-4.2900000000,A01BBE,5,1548724972000
1548724993187.5000000000,10,-17.5100000000,A01BBE,5,1548724972000
1548724993203.1201171875,10,-31.1200000000,A01BBE,5,1548724972000
1548724993218.7500000000,10,-42.8100000000,A01BBE,5,1548724972000
1548724993234.3798828125,10,-51.0100000000,A01BBE,5,1548724972000
1548724993250.0000000000,10,-55.4100000000,A01BBE,5,1548724972000
1548724993265.6201171875,10,-57.0700000000,A01BBE,5,1548724972000
1548724993281.2500000000,10,-57.7000000000,A01BBE,5,1548724972000
1548724993296.8798828125,10,-58.8600000000,A01BBE,5,1548724972000
1548724993312.5000000000,10,-61.4900000000,A01BBE,5,1548724972000
1548724993328.1201171875,10,-65.8200000000,A01BBE,5,1548724972000
1548724993343.7500000000,10,-71.7000000000,A01BBE,5,1548724972000
1548724993359.3798828125,10,-78.7900000000,A01BBE,5,1548724972000
1548724993375.0000000000,10,-86.6000000000,A01BBE,5,1548724972000
1548724993390.6201171875,10,-94.3400000000,A01BBE,5,1548724972000
1548724993406.2500000000,10,-100.8300000000,A01BBE,5,1548724972000
1548724993421.8798828125,10,-104.8600000000,A01BBE,5,1548724972000
1548724993437.5000000000,10,-105.6600000000,A01BBE,5,1548724972000
1548724993453.1201171875,10,-103.3200000000,A01BBE,5,1548724972000
1548724993468.7500000000,10,-98.8600000000,A01BBE,5,1548724972000
1548724993484.3798828125,10,-93.8700000000,A01BBE,5,1548724972000
1548724993500.0000000000,10,-89.8000000000,A01BBE,5,1548724972000
1548724993515.6201171875,10,-87.3700000000,A01BBE,5,1548724972000
1548724993531.2500000000,10,-86.3300000000,A01BBE,5,1548724972000
1548724993546.8798828125,10,-85.6400000000,A01BBE,5,1548724972000
1548724993562.5000000000,10,-83.8200000000,A01BBE,5,1548724972000
1548724993578.1201171875,10,-79.5300000000,A01BBE,5,1548724972000
1548724993593.7500000000,10,-71.9000000000,A01BBE,5,1548724972000
1548724993609.3798828125,10,-60.7000000000,A01BBE,5,1548724972000
1548724993625.0000000000,10,-46.3600000000,A01BBE,5,1548724972000
1548724993640.6201171875,10,-29.8800000000,A01BBE,5,1548724972000
1548724993656.2500000000,10,-12.5600000000,A01BBE,5,1548724972000
1548724993671.8798828125,10,4.3100000000,A01BBE,5,1548724972000
1548724993687.5000000000,10,19.5300000000,A01BBE,5,1548724972000
1548724993703.1201171875,10,32.2400000000,A01BBE,5,1548724972000
1548724993718.7500000000,10,41.9200000000,A01BBE,5,1548724972000
1548724993734.3798828125,10,48.3600000000,A01BBE,5,1548724972000
1548724993750.0000000000,10,51.6500000000,A01BBE,5,1548724972000
1548724993765.6201171875,10,52.1600000000,A01BBE,5,1548724972000
1548724993781.2500000000,10,50.5000000000,A01BBE,5,1548724972000
1548724993796.8798828125,10,47.2500000000,A01BBE,5,1548724972000
1548724993812.5000000000,10,42.9500000000,A01BBE,5,1548724972000
1548724993828.1201171875,10,37.9700000000,A01BBE,5,1548724972000
1548724993843.7500000000,10,32.4700000000,A01BBE,5,1548724972000
1548724993859.3798828125,10,26.6200000000,A01BBE,5,1548724972000
1548724993875.0000000000,10,20.6600000000,A01BBE,5,1548724972000
1548724993890.6201171875,10,14.9100000000,A01BBE,5,1548724972000
1548724993906.2500000000,10,9.6800000000,A01BBE,5,1548724972000
1548724993921.8798828125,10,5.0500000000,A01BBE,5,1548724972000
1548724993937.5000000000,10,0.8300000000,A01BBE,5,1548724972000
1548724993953.1201171875,10,-3.4300000000,A01BBE,5,1548724972000
1548724993968.7500000000,10,-8.1700000000,A01BBE,5,1548724972000
1548724993984.3798828125,10,-13.7300000000,A01BBE,5,1548724972000
1548724994000.0000000000,10,-20.2100000000,A01BBE,5,1548724972000
1548724994015.6201171875,10,-27.4800000000,A01BBE,5,1548724972000
1548724994031.2500000000,10,-35.2300000000,A01BBE,5,1548724972000
1548724994046.8798828125,10,-43.1100000000,A01BBE,5,1548724972000
1548724994062.5000000000,10,-50.6100000000,A01BBE,5,1548724972000
1548724994078.1201171875,10,-57.2400000000,A01BBE,5,1548724972000
1548724994093.7500000000,10,-62.6700000000,A01BBE,5,1548724972000
1548724994109.3798828125,10,-66.9900000000,A01BBE,5,1548724972000
1548724994125.0000000000,10,-70.8400000000,A01BBE,5,1548724972000
1548724994140.6201171875,10,-75.3300000000,A01BBE,5,1548724972000
1548724994156.2500000000,10,-81.5700000000,A01BBE,5,1548724972000
1548724994171.8798828125,10,-90.0800000000,A01BBE,5,1548724972000
1548724994187.5000000000,10,-100.3200000000,A01BBE,5,1548724972000
1548724994203.1201171875,10,-110.6500000000,A01BBE,5,1548724972000
1548724994218.7500000000,10,-118.7200000000,A01BBE,5,1548724972000
1548724994234.3798828125,10,-122.3000000000,A01BBE,5,1548724972000
1548724994250.0000000000,10,-120.0400000000,A01BBE,5,1548724972000
1548724994265.6201171875,10,-111.9500000000,A01BBE,5,1548724972000
1548724994281.2500000000,10,-99.2600000000,A01BBE,5,1548724972000
1548724994296.8798828125,10,-83.8600000000,A01BBE,5,1548724972000
1548724994312.5000000000,10,-67.5100000000,A01BBE,5,1548724972000
1548724994328.1201171875,10,-51.3900000000,A01BBE,5,1548724972000
1548724994343.7500000000,10,-35.9900000000,A01BBE,5,1548724972000
1548724994359.3798828125,10,-21.5200000000,A01BBE,5,1548724972000
1548724994375.0000000000,10,-8.3800000000,A01BBE,5,1548724972000
1548724994390.6201171875,10,2.7000000000,A01BBE,5,1548724972000
1548724994406.2500000000,10,10.8900000000,A01BBE,5,1548724972000
1548724994421.8798828125,10,15.6700000000,A01BBE,5,1548724972000
1548724994437.5000000000,10,17.3000000000,A01BBE,5,1548724972000
1548724994453.1201171875,10,16.7700000000,A01BBE,5,1548724972000
1548724994468.7500000000,10,15.3700000000,A01BBE,5,1548724972000
1548724994484.3798828125,10,13.9600000000,A01BBE,5,1548724972000
1548724994500.0000000000,10,12.4900000000,A01BBE,5,1548724972000
1548724994515.6201171875,10,10.0700000000,A01BBE,5,1548724972000
1548724994531.2500000000,10,5.4800000000,A01BBE,5,1548724972000
1548724994546.8798828125,10,-1.9800000000,A01BBE,5,1548724972000
1548724994562.5000000000,10,-11.9200000000,A01BBE,5,1548724972000
1548724994578.1201171875,10,-22.8800000000,A01BBE,5,1548724972000
1548724994593.7500000000,10,-33.0000000000,A01BBE,5,1548724972000
1548724994609.3798828125,10,-40.8700000000,A01BBE,5,1548724972000
1548724994625.0000000000,10,-46.1900000000,A01BBE,5,1548724972000
1548724994640.6201171875,10,-49.6500000000,A01BBE,5,1548724972000
1548724994656.2500000000,10,-52.3800000000,A01BBE,5,1548724972000
1548724994671.8798828125,10,-55.2400000000,A01BBE,5,1548724972000
1548724994687.5000000000,10,-58.2800000000,A01BBE,5,1548724972000
1548724994703.1201171875,10,-60.9600000000,A01BBE,5,1548724972000
1548724994718.7500000000,10,-62.6900000000,A01BBE,5,1548724972000
1548724994734.3798828125,10,-63.5100000000,A01BBE,5,1548724972000
1548724994750.0000000000,10,-63.9900000000,A01BBE,5,1548724972000
1548724994765.6201171875,10,-64.7800000000,A01BBE,5,1548724972000
1548724994781.2500000000,10,-65.8900000000,A01BBE,5,1548724972000
1548724994796.8798828125,10,-66.3900000000,A01BBE,5,1548724972000
1548724994812.5000000000,10,-64.7500000000,A01BBE,5,1548724972000
1548724994828.1201171875,10,-59.7800000000,A01BBE,5,1548724972000
1548724994843.7500000000,10,-51.5300000000,A01BBE,5,1548724972000
1548724994859.3798828125,10,-41.4300000000,A01BBE,5,1548724972000
1548724994875.0000000000,10,-31.5900000000,A01BBE,5,1548724972000
1548724994890.6201171875,10,-23.6200000000,A01BBE,5,1548724972000
1548724994906.2500000000,10,-17.7200000000,A01BBE,5,1548724972000
1548724994921.8798828125,10,-12.5000000000,A01BBE,5,1548724972000
1548724994937.5000000000,10,-5.7100000000,A01BBE,5,1548724972000
1548724994953.1201171875,10,4.5800000000,A01BBE,5,1548724972000
1548724994968.7500000000,10,19.1200000000,A01BBE,5,1548724972000
1548724994984.3798828125,10,37.2200000000,A01BBE,5,1548724972000
1548724995000.0000000000,10,57.2000000000,A01BBE,5,1548724972000
1548724995015.6201171875,10,77.1500000000,A01BBE,5,1548724972000
1548724995031.2500000000,10,95.5700000000,A01BBE,5,1548724972000
1548724995046.8798828125,10,111.4800000000,A01BBE,5,1548724972000
1548724995062.5000000000,10,124.3300000000,A01BBE,5,1548724972000
1548724995078.1201171875,10,133.6200000000,A01BBE,5,1548724972000
1548724995093.7500000000,10,138.7500000000,A01BBE,5,1548724972000
1548724995109.3798828125,10,139.0100000000,A01BBE,5,1548724972000
1548724995125.0000000000,10,133.8300000000,A01BBE,5,1548724972000
1548724995140.6201171875,10,123.1600000000,A01BBE,5,1548724972000
1548724995156.2500000000,10,107.6900000000,A01BBE,5,1548724972000
1548724995171.8798828125,10,89.1800000000,A01BBE,5,1548724972000
1548724995187.5000000000,10,70.4100000000,A01BBE,5,1548724972000
1548724995203.1201171875,10,54.8400000000,A01BBE,5,1548724972000
1548724995218.7500000000,10,45.9000000000,A01BBE,5,1548724972000
1548724995234.3798828125,10,45.9600000000,A01BBE,5,1548724972000
1548724995250.0000000000,10,55.3900000000,A01BBE,5,1548724972000
1548724995265.6201171875,10,72.3800000000,A01BBE,5,1548724972000
1548724995281.2500000000,10,93.5700000000,A01BBE,5,1548724972000
1548724995296.8798828125,10,115.4000000000,A01BBE,5,1548724972000
1548724995312.5000000000,10,135.3200000000,A01BBE,5,1548724972000
1548724995328.1201171875,10,152.3100000000,A01BBE,5,1548724972000
1548724995343.7500000000,10,166.4300000000,A01BBE,5,1548724972000
1548724995359.3798828125,10,177.7500000000,A01BBE,5,1548724972000
1548724995375.0000000000,10,185.5700000000,A01BBE,5,1548724972000
1548724995390.6201171875,10,188.4200000000,A01BBE,5,1548724972000
1548724995406.2500000000,10,184.9200000000,A01BBE,5,1548724972000
1548724995421.8798828125,10,174.7700000000,A01BBE,5,1548724972000
1548724995437.5000000000,10,159.3400000000,A01BBE,5,1548724972000
1548724995453.1201171875,10,141.2200000000,A01BBE,5,1548724972000
1548724995468.7500000000,10,123.1900000000,A01BBE,5,1548724972000
1548724995484.3798828125,10,107.3500000000,A01BBE,5,1548724972000
1548724995500.0000000000,10,94.8400000000,A01BBE,5,1548724972000
1548724995515.6201171875,10,85.9500000000,A01BBE,5,1548724972000
1548724995531.2500000000,10,80.3900000000,A01BBE,5,1548724972000
1548724995546.8798828125,10,77.1800000000,A01BBE,5,1548724972000
1548724995562.5000000000,10,74.3700000000,A01BBE,5,1548724972000
1548724995578.1201171875,10,69.0900000000,A01BBE,5,1548724972000
1548724995593.7500000000,10,58.3400000000,A01BBE,5,1548724972000
1548724995609.3798828125,10,40.4400000000,A01BBE,5,1548724972000
1548724995625.0000000000,10,16.1000000000,A01BBE,5,1548724972000
1548724995640.6201171875,10,-11.2800000000,A01BBE,5,1548724972000
1548724995656.2500000000,10,-36.8600000000,A01BBE,5,1548724972000
1548724995671.8798828125,10,-56.1800000000,A01BBE,5,1548724972000
1548724995687.5000000000,10,-66.8200000000,A01BBE,5,1548724972000
1548724995703.1201171875,10,-69.1500000000,A01BBE,5,1548724972000
1548724995718.7500000000,10,-65.5400000000,A01BBE,5,1548724972000
1548724995734.3798828125,10,-59.0100000000,A01BBE,5,1548724972000
1548724995750.0000000000,10,-51.8400000000,A01BBE,5,1548724972000
1548724995765.6201171875,10,-44.9900000000,A01BBE,5,1548724972000
1548724995781.2500000000,10,-38.3800000000,A01BBE,5,1548724972000
1548724995796.8798828125,10,-31.6900000000,A01BBE,5,1548724972000
1548724995812.5000000000,10,-25.0200000000,A01BBE,5,1548724972000
1548724995828.1201171875,10,-19.0600000000,A01BBE,5,1548724972000
1548724995843.7500000000,10,-14.7200000000,A01BBE,5,1548724972000
1548724995859.3798828125,10,-12.5500000000,A01BBE,5,1548724972000
1548724995875.0000000000,10,-12.2800000000,A01BBE,5,1548724972000
1548724995890.6201171875,10,-12.9700000000,A01BBE,5,1548724972000
1548724995906.2500000000,10,-13.3500000000,A01BBE,5,1548724972000
1548724995921.8798828125,10,-12.3600000000,A01BBE,5,1548724972000
1548724995937.5000000000,10,-9.4200000000,A01BBE,5,1548724972000
1548724995953.1201171875,10,-4.3600000000,A01BBE,5,1548724972000
1548724995968.7500000000,10,2.6400000000,A01BBE,5,1548724972000
1548724995984.3798828125,10,11.1700000000,A01BBE,5,1548724972000
1548724996000.0000000000,10,20.3300000000,A01BBE,5,1548724972000
1548724996015.6201171875,10,28.7500000000,A01BBE,5,1548724972000
1548724996031.2500000000,10,34.7900000000,A01BBE,5,1548724972000
1548724996046.8798828125,10,37.2800000000,A01BBE,5,1548724972000
1548724996062.5000000000,10,36.2900000000,A01BBE,5,1548724972000
1548724996078.1201171875,10,33.5100000000,A01BBE,5,1548724972000
1548724996093.7500000000,10,31.6100000000,A01BBE,5,1548724972000
1548724996109.3798828125,10,32.9600000000,A01BBE,5,1548724972000
1548724996125.0000000000,10,38.2500000000,A01BBE,5,1548724972000
1548724996140.6201171875,10,45.8700000000,A01BBE,5,1548724972000
1548724996156.2500000000,10,52.4800000000,A01BBE,5,1548724972000
1548724996171.8798828125,10,54.5800000000,A01BBE,5,1548724972000
1548724996187.5000000000,10,50.1400000000,A01BBE,5,1548724972000
1548724996203.1201171875,10,39.5300000000,A01BBE,5,1548724972000
1548724996218.7500000000,10,25.1800000000,A01BBE,5,1548724972000
1548724996234.3798828125,10,10.2900000000,A01BBE,5,1548724972000
1548724996250.0000000000,10,-2.6600000000,A01BBE,5,1548724972000
1548724996265.6201171875,10,-12.8500000000,A01BBE,5,1548724972000
1548724996281.2500000000,10,-21.0400000000,A01BBE,5,1548724972000
1548724996296.8798828125,10,-28.8100000000,A01BBE,5,1548724972000
1548724996312.5000000000,10,-37.4700000000,A01BBE,5,1548724972000
1548724996328.1201171875,10,-47.4900000000,A01BBE,5,1548724972000
1548724996343.7500000000,10,-58.3900000000,A01BBE,5,1548724972000
1548724996359.3798828125,10,-69.2700000000,A01BBE,5,1548724972000
1548724996375.0000000000,10,-79.3000000000,A01BBE,5,1548724972000
1548724996390.6201171875,10,-87.9600000000,A01BBE,5,1548724972000
1548724996406.2500000000,10,-95.0200000000,A01BBE,5,1548724972000
1548724996421.8798828125,10,-100.2900000000,A01BBE,5,1548724972000
1548724996437.5000000000,10,-103.4100000000,A01BBE,5,1548724972000
1548724996453.1201171875,10,-103.9100000000,A01BBE,5,1548724972000
1548724996468.7500000000,10,-101.3700000000,A01BBE,5,1548724972000
1548724996484.3798828125,10,-95.6100000000,A01BBE,5,1548724972000
1548724996500.0000000000,10,-86.6400000000,A01BBE,5,1548724972000
1548724996515.6201171875,10,-74.5400000000,A01BBE,5,1548724972000
1548724996531.2500000000,10,-59.4500000000,A01BBE,5,1548724972000
1548724996546.8798828125,10,-41.6400000000,A01BBE,5,1548724972000
1548724996562.5000000000,10,-22.0700000000,A01BBE,5,1548724972000
1548724996578.1201171875,10,-2.7900000000,A01BBE,5,1548724972000
1548724996593.7500000000,10,13.1000000000,A01BBE,5,1548724972000
1548724996609.3798828125,10,22.2000000000,A01BBE,5,1548724972000
1548724996625.0000000000,10,22.1200000000,A01BBE,5,1548724972000
1548724996640.6201171875,10,12.8000000000,A01BBE,5,1548724972000
1548724996656.2500000000,10,-3.1500000000,A01BBE,5,1548724972000
1548724996671.8798828125,10,-21.2900000000,A01BBE,5,1548724972000
1548724996687.5000000000,10,-37.1900000000,A01BBE,5,1548724972000
1548724996703.1201171875,10,-48.1900000000,A01BBE,5,1548724972000
1548724996718.7500000000,10,-54.2400000000,A01BBE,5,1548724972000
1548724996734.3798828125,10,-57.1500000000,A01BBE,5,1548724972000
1548724996750.0000000000,10,-58.9100000000,A01BBE,5,1548724972000
1548724996765.6201171875,10,-60.3400000000,A01BBE,5,1548724972000
1548724996781.2500000000,10,-60.7700000000,A01BBE,5,1548724972000
1548724996796.8798828125,10,-59.3000000000,A01BBE,5,1548724972000
1548724996812.5000000000,10,-56.2000000000,A01BBE,5,1548724972000
1548724996828.1201171875,10,-53.4900000000,A01BBE,5,1548724972000
1548724996843.7500000000,10,-53.9700000000,A01BBE,5,1548724972000
1548724996859.3798828125,10,-59.3300000000,A01BBE,5,1548724972000
1548724996875.0000000000,10,-68.7200000000,A01BBE,5,1548724972000
1548724996890.6201171875,10,-78.9100000000,A01BBE,5,1548724972000
1548724996906.2500000000,10,-86.1500000000,A01BBE,5,1548724972000
1548724996921.8798828125,10,-88.4500000000,A01BBE,5,1548724972000
1548724996937.5000000000,10,-86.6100000000,A01BBE,5,1548724972000
1548724996953.1201171875,10,-83.2900000000,A01BBE,5,1548724972000
1548724996968.7500000000,10,-80.7600000000,A01BBE,5,1548724972000
1548724996984.3798828125,10,-78.9100000000,A01BBE,5,1548724972000
1548724997000.0000000000,10,-74.9800000000,A01BBE,5,1548724972000
1548724997015.6201171875,10,-65.2300000000,A01BBE,5,1548724972000
1548724997031.2500000000,10,-47.4800000000,A01BBE,5,1548724972000
1548724997046.8798828125,10,-22.6900000000,A01BBE,5,1548724972000
1548724997062.5000000000,10,5.4900000000,A01BBE,5,1548724972000
1548724997078.1201171875,10,32.5100000000,A01BBE,5,1548724972000
1548724997093.7500000000,10,55.1500000000,A01BBE,5,1548724972000
1548724997109.3798828125,10,72.3300000000,A01BBE,5,1548724972000
1548724997125.0000000000,10,84.5500000000,A01BBE,5,1548724972000
1548724997140.6201171875,10,92.4100000000,A01BBE,5,1548724972000
1548724997156.2500000000,10,95.7400000000,A01BBE,5,1548724972000
1548724997171.8798828125,10,93.8800000000,A01BBE,5,1548724972000
1548724997187.5000000000,10,86.8500000000,A01BBE,5,1548724972000
1548724997203.1201171875,10,76.2600000000,A01BBE,5,1548724972000
1548724997218.7500000000,10,65.0200000000,A01BBE,5,1548724972000
1548724997234.3798828125,10,55.9500000000,A01BBE,5,1548724972000
1548724997250.0000000000,10,50.2200000000,A01BBE,5,1548724972000
1548724997265.6201171875,10,46.7000000000,A01BBE,5,1548724972000
1548724997281.2500000000,10,42.7200000000,A01BBE,5,1548724972000
1548724997296.8798828125,10,35.7200000000,A01BBE,5,1548724972000
1548724997312.5000000000,10,24.6400000000,A01BBE,5,1548724972000
1548724997328.1201171875,10,10.3000000000,A01BBE,5,1548724972000
1548724997343.7500000000,10,-5.4500000000,A01BBE,5,1548724972000
1548724997359.3798828125,10,-20.8500000000,A01BBE,5,1548724972000
1548724997375.0000000000,10,-35.0800000000,A01BBE,5,1548724972000
1548724997390.6201171875,10,-48.1100000000,A01BBE,5,1548724972000
1548724997406.2500000000,10,-59.9000000000,A01BBE,5,1548724972000
1548724997421.8798828125,10,-69.8500000000,A01BBE,5,1548724972000
1548724997437.5000000000,10,-76.6900000000,A01BBE,5,1548724972000
1548724997453.1201171875,10,-79.1100000000,A01BBE,5,1548724972000
1548724997468.7500000000,10,-76.4500000000,A01BBE,5,1548724972000
1548724997484.3798828125,10,-69.1200000000,A01BBE,5,1548724972000
1548724997500.0000000000,10,-58.5000000000,A01BBE,5,1548724972000
1548724997515.6201171875,10,-46.3400000000,A01BBE,5,1548724972000
1548724997531.2500000000,10,-34.1400000000,A01BBE,5,1548724972000
1548724997546.8798828125,10,-22.8800000000,A01BBE,5,1548724972000
1548724997562.5000000000,10,-12.8000000000,A01BBE,5,1548724972000
1548724997578.1201171875,10,-3.5600000000,A01BBE,5,1548724972000
1548724997593.7500000000,10,5.6100000000,A01BBE,5,1548724972000
1548724997609.3798828125,10,15.7200000000,A01BBE,5,1548724972000
1548724997625.0000000000,10,27.6800000000,A01BBE,5,1548724972000
1548724997640.6201171875,10,41.9500000000,A01BBE,5,1548724972000
1548724997656.2500000000,10,58.2800000000,A01BBE,5,1548724972000
1548724997671.8798828125,10,75.6700000000,A01BBE,5,1548724972000
1548724997687.5000000000,10,92.6700000000,A01BBE,5,1548724972000
1548724997703.1201171875,10,107.9300000000,A01BBE,5,1548724972000
1548724997718.7500000000,10,120.6400000000,A01BBE,5,1548724972000
1548724997734.3798828125,10,130.7300000000,A01BBE,5,1548724972000
1548724997750.0000000000,10,138.7000000000,A01BBE,5,1548724972000
1548724997765.6201171875,10,145.1200000000,A01BBE,5,1548724972000
1548724997781.2500000000,10,150.1900000000,A01BBE,5,1548724972000
1548724997796.8798828125,10,153.5600000000,A01BBE,5,1548724972000
1548724997812.5000000000,10,154.6100000000,A01BBE,5,1548724972000
1548724997828.1201171875,10,152.8800000000,A01BBE,5,1548724972000
1548724997843.7500000000,10,148.7600000000,A01BBE,5,1548724972000
1548724997859.3798828125,10,143.8100000000,A01BBE,5,1548724972000
1548724997875.0000000000,10,140.4000000000,A01BBE,5,1548724972000
1548724997890.6201171875,10,140.9700000000,A01BBE,5,1548724972000
1548724997906.2500000000,10,146.6200000000,A01BBE,5,1548724972000
1548724997921.8798828125,10,156.2000000000,A01BBE,5,1548724972000
1548724997937.5000000000,10,166.0800000000,A01BBE,5,1548724972000
1548724997953.1201171875,10,171.2000000000,A01BBE,5,1548724972000
1548724997968.7500000000,10,166.9400000000,A01BBE,5,1548724972000
1548724997984.3798828125,10,150.9500000000,A01BBE,5,1548724972000
1548724998000.0000000000,10,124.0600000000,A01BBE,5,1548724972000
1548724998015.6201171875,10,90.0100000000,A01BBE,5,1548724972000
1548724998031.2500000000,10,54.0800000000,A01BBE,5,1548724972000
1548724998046.8798828125,10,21.3400000000,A01BBE,5,1548724972000
1548724998062.5000000000,10,-4.6200000000,A01BBE,5,1548724972000
1548724998078.1201171875,10,-22.2700000000,A01BBE,5,1548724972000
1548724998093.7500000000,10,-32.2800000000,A01BBE,5,1548724972000
1548724998109.3798828125,10,-37.0900000000,A01BBE,5,1548724972000
1548724998125.0000000000,10,-40.5000000000,A01BBE,5,1548724972000
1548724998140.6201171875,10,-46.9300000000,A01BBE,5,1548724972000
1548724998156.2500000000,10,-60.2300000000,A01BBE,5,1548724972000
1548724998171.8798828125,10,-82.2200000000,A01BBE,5,1548724972000
1548724998187.5000000000,10,-111.4200000000,A01BBE,5,1548724972000
1548724998203.1201171875,10,-143.0400000000,A01BBE,5,1548724972000
1548724998218.7500000000,10,-170.4200000000,A01BBE,5,1548724972000
1548724998234.3798828125,10,-187.2300000000,A01BBE,5,1548724972000
1548724998250.0000000000,10,-189.8100000000,A01BBE,5,1548724972000
1548724998265.6201171875,10,-178.1700000000,A01BBE,5,1548724972000
1548724998281.2500000000,10,-155.4900000000,A01BBE,5,1548724972000
1548724998296.8798828125,10,-126.2900000000,A01BBE,5,1548724972000
1548724998312.5000000000,10,-94.6500000000,A01BBE,5,1548724972000
1548724998328.1201171875,10,-63.1200000000,A01BBE,5,1548724972000
1548724998343.7500000000,10,-32.8000000000,A01BBE,5,1548724972000
1548724998359.3798828125,10,-4.0800000000,A01BBE,5,1548724972000
1548724998375.0000000000,10,22.6000000000,A01BBE,5,1548724972000
1548724998390.6201171875,10,46.6400000000,A01BBE,5,1548724972000
1548724998406.2500000000,10,67.6700000000,A01BBE,5,1548724972000
1548724998421.8798828125,10,85.9500000000,A01BBE,5,1548724972000
1548724998437.5000000000,10,102.3100000000,A01BBE,5,1548724972000
1548724998453.1201171875,10,117.3500000000,A01BBE,5,1548724972000
1548724998468.7500000000,10,130.7400000000,A01BBE,5,1548724972000
1548724998484.3798828125,10,140.9500000000,A01BBE,5,1548724972000
1548724998500.0000000000,10,145.7800000000,A01BBE,5,1548724972000
1548724998515.6201171875,10,143.5500000000,A01BBE,5,1548724972000
1548724998531.2500000000,10,134.0700000000,A01BBE,5,1548724972000
1548724998546.8798828125,10,118.7400000000,A01BBE,5,1548724972000
1548724998562.5000000000,10,100.0100000000,A01BBE,5,1548724972000
1548724998578.1201171875,10,80.2900000000,A01BBE,5,1548724972000
1548724998593.7500000000,10,61.2600000000,A01BBE,5,1548724972000
1548724998609.3798828125,10,43.6200000000,A01BBE,5,1548724972000
1548724998625.0000000000,10,27.5500000000,A01BBE,5,1548724972000
1548724998640.6201171875,10,13.2500000000,A01BBE,5,1548724972000
1548724998656.2500000000,10,1.2900000000,A01BBE,5,1548724972000
1548724998671.8798828125,10,-7.3800000000,A01BBE,5,1548724972000
1548724998687.5000000000,10,-11.5700000000,A01BBE,5,1548724972000
1548724998703.1201171875,10,-10.2500000000,A01BBE,5,1548724972000
1548724998718.7500000000,10,-3.0600000000,A01BBE,5,1548724972000
1548724998734.3798828125,10,9.2300000000,A01BBE,5,1548724972000
1548724998750.0000000000,10,24.3400000000,A01BBE,5,1548724972000
1548724998765.6201171875,10,38.5900000000,A01BBE,5,1548724972000
1548724998781.2500000000,10,47.7600000000,A01BBE,5,1548724972000
1548724998796.8798828125,10,48.7600000000,A01BBE,5,1548724972000
1548724998812.5000000000,10,41.1900000000,A01BBE,5,1548724972000
1548724998828.1201171875,10,28.0000000000,A01BBE,5,1548724972000
1548724998843.7500000000,10,14.4600000000,A01BBE,5,1548724972000
1548724998859.3798828125,10,5.7500000000,A01BBE,5,1548724972000
1548724998875.0000000000,10,4.3400000000,A01BBE,5,1548724972000
1548724998890.6201171875,10,8.5900000000,A01BBE,5,1548724972000
1548724998906.2500000000,10,13.6300000000,A01BBE,5,1548724972000
1548724998921.8798828125,10,13.8700000000,A01BBE,5,1548724972000
1548724998937.5000000000,10,5.8100000000,A01BBE,5,1548724972000
1548724998953.1201171875,10,-10.2600000000,A01BBE,5,1548724972000
1548724998968.7500000000,10,-30.7300000000,A01BBE,5,1548724972000
1548724998984.3798828125,10,-50.5500000000,A01BBE,5,1548724972000
1548724999000.0000000000,10,-65.6000000000,A01BBE,5,1548724972000
1548724999015.6201171875,10,-73.9500000000,A01BBE,5,1548724972000
1548724999031.2500000000,10,-75.7900000000,A01BBE,5,1548724972000
1548724999046.8798828125,10,-72.3200000000,A01BBE,5,1548724972000
1548724999062.5000000000,10,-64.5800000000,A01BBE,5,1548724972000
1548724999078.1201171875,10,-52.9600000000,A01BBE,5,1548724972000
1548724999093.7500000000,10,-37.7500000000,A01BBE,5,1548724972000
1548724999109.3798828125,10,-19.8600000000,A01BBE,5,1548724972000
1548724999125.0000000000,10,-1.4600000000,A01BBE,5,1548724972000
1548724999140.6201171875,10,14.2900000000,A01BBE,5,1548724972000
1548724999156.2500000000,10,24.2300000000,A01BBE,5,1548724972000
1548724999171.8798828125,10,26.3100000000,A01BBE,5,1548724972000
1548724999187.5000000000,10,20.5600000000,A01BBE,5,1548724972000
1548724999203.1201171875,10,9.0200000000,A01BBE,5,1548724972000
1548724999218.7500000000,10,-5.2000000000,A01BBE,5,1548724972000
1548724999234.3798828125,10,-19.3000000000,A01BBE,5,1548724972000
1548724999250.0000000000,10,-31.6300000000,A01BBE,5,1548724972000
1548724999265.6201171875,10,-41.7900000000,A01BBE,5,1548724972000
1548724999281.2500000000,10,-49.8400000000,A01BBE,5,1548724972000
1548724999296.8798828125,10,-55.4500000000,A01BBE,5,1548724972000
1548724999312.5000000000,10,-57.6800000000,A01BBE,5,1548724972000
1548724999328.1201171875,10,-55.6600000000,A01BBE,5,1548724972000
1548724999343.7500000000,10,-49.6800000000,A01BBE,5,1548724972000
1548724999359.3798828125,10,-41.7800000000,A01BBE,5,1548724972000
1548724999375.0000000000,10,-35.1600000000,A01BBE,5,1548724972000
1548724999390.6201171875,10,-32.7900000000,A01BBE,5,1548724972000
1548724999406.2500000000,10,-35.7400000000,A01BBE,5,1548724972000
1548724999421.8798828125,10,-42.7000000000,A01BBE,5,1548724972000
1548724999437.5000000000,10,-50.8100000000,A01BBE,5,1548724972000
1548724999453.1201171875,10,-57.4300000000,A01BBE,5,1548724972000
1548724999468.7500000000,10,-61.8100000000,A01BBE,5,1548724972000
1548724999484.3798828125,10,-65.4200000000,A01BBE,5,1548724972000
1548724999500.0000000000,10,-70.9300000000,A01BBE,5,1548724972000
1548724999515.6201171875,10,-80.5000000000,A01BBE,5,1548724972000
1548724999531.2500000000,10,-94.3300000000,A01BBE,5,1548724972000
1548724999546.8798828125,10,-110.3600000000,A01BBE,5,1548724972000
1548724999562.5000000000,10,-125.1800000000,A01BBE,5,1548724972000
1548724999578.1201171875,10,-135.2700000000,A01BBE,5,1548724972000
1548724999593.7500000000,10,-138.2600000000,A01BBE,5,1548724972000
1548724999609.3798828125,10,-133.4000000000,A01BBE,5,1548724972000
1548724999625.0000000000,10,-121.3200000000,A01BBE,5,1548724972000
1548724999640.6201171875,10,-103.5100000000,A01BBE,5,1548724972000
1548724999656.2500000000,10,-81.8300000000,A01BBE,5,1548724972000
1548724999671.8798828125,10,-58.3000000000,A01BBE,5,1548724972000
1548724999687.5000000000,10,-34.9500000000,A01BBE,5,1548724972000
1548724999703.1201171875,10,-13.7800000000,A01BBE,5,1548724972000
1548724999718.7500000000,10,3.5000000000,A01BBE,5,1548724972000
1548724999734.3798828125,10,15.8400000000,A01BBE,5,1548724972000
1548724999750.0000000000,10,23.0200000000,A01BBE,5,1548724972000
1548724999765.6201171875,10,25.6800000000,A01BBE,5,1548724972000
1548724999781.2500000000,10,25.0000000000,A01BBE,5,1548724972000
1548724999796.8798828125,10,22.3400000000,A01BBE,5,1548724972000
1548724999812.5000000000,10,18.8600000000,A01BBE,5,1548724972000
1548724999828.1201171875,10,15.4700000000,A01BBE,5,1548724972000
1548724999843.7500000000,10,12.8100000000,A01BBE,5,1548724972000
1548724999859.3798828125,10,11.3000000000,A01BBE,5,1548724972000
1548724999875.0000000000,10,11.2100000000,A01BBE,5,1548724972000
1548724999890.6201171875,10,12.5100000000,A01BBE,5,1548724972000
1548724999906.2500000000,10,14.9900000000,A01BBE,5,1548724972000
1548724999921.8798828125,10,18.2300000000,A01BBE,5,1548724972000
1548724999937.5000000000,10,21.8300000000,A01BBE,5,1548724972000
1548724999953.1201171875,10,25.5000000000,A01BBE,5,1548724972000
1548724999968.7500000000,10,28.9700000000,A01BBE,5,1548724972000
1548724999984.3798828125,10,31.8400000000,A01BBE,5,1548724972000
1548725000000.0000000000,10,33.4500000000,A01BBE,5,1548724972000
1548725000015.6201171875,10,32.8400000000,A01BBE,5,1548724972000
1548725000031.2500000000,10,29.1000000000,A01BBE,5,1548724972000
1548725000046.8798828125,10,21.7000000000,A01BBE,5,1548724972000
1548725000062.5000000000,10,10.8300000000,A01BBE,5,1548724972000
1548725000078.1201171875,10,-2.4300000000,A01BBE,5,1548724972000
1548725000093.7500000000,10,-16.4500000000,A01BBE,5,1548724972000
1548725000109.3798828125,10,-29.4200000000,A01BBE,5,1548724972000
1548725000125.0000000000,10,-39.9100000000,A01BBE,5,1548724972000
1548725000140.6201171875,10,-47.2100000000,A01BBE,5,1548724972000
1548725000156.2500000000,10,-51.4500000000,A01BBE,5,1548724972000
1548725000171.8798828125,10,-53.4400000000,A01BBE,5,1548724972000
1548725000187.5000000000,10,-54.3700000000,A01BBE,5,1548724972000
1548725000203.1201171875,10,-55.4800000000,A01BBE,5,1548724972000
1548725000218.7500000000,10,-57.7000000000,A01BBE,5,1548724972000
1548725000234.3798828125,10,-61.3500000000,A01BBE,5,1548724972000
1548725000250.0000000000,10,-66.1100000000,A01BBE,5,1548724972000
1548725000265.6201171875,10,-70.9400000000,A01BBE,5,1548724972000
1548725000281.2500000000,10,-74.4400000000,A01BBE,5,1548724972000
1548725000296.8798828125,10,-75.2300000000,A01BBE,5,1548724972000
1548725000312.5000000000,10,-72.4400000000,A01BBE,5,1548724972000
1548725000328.1201171875,10,-65.9500000000,A01BBE,5,1548724972000
1548725000343.7500000000,10,-56.3800000000,A01BBE,5,1548724972000
1548725000359.3798828125,10,-44.8900000000,A01BBE,5,1548724972000
1548725000375.0000000000,10,-32.6200000000,A01BBE,5,1548724972000
1548725000390.6201171875,10,-20.5300000000,A01BBE,5,1548724972000
1548725000406.2500000000,10,-9.1500000000,A01BBE,5,1548724972000
1548725000421.8798828125,10,1.2600000000,A01BBE,5,1548724972000
1548725000437.5000000000,10,10.5400000000,A01BBE,5,1548724972000
1548725000453.1201171875,10,18.4800000000,A01BBE,5,1548724972000
1548725000468.7500000000,10,24.7800000000,A01BBE,5,1548724972000
1548725000484.3798828125,10,29.1900000000,A01BBE,5,1548724972000
1548725000500.0000000000,10,31.6400000000,A01BBE,5,1548724972000
1548725000515.6201171875,10,32.4200000000,A01BBE,5,1548724972000
1548725000531.2500000000,10,32.0600000000,A01BBE,5,1548724972000
1548725000546.8798828125,10,31.3200000000,A01BBE,5,1548724972000
1548725000562.5000000000,10,30.9100000000,A01BBE,5,1548724972000
1548725000578.1201171875,10,31.3700000000,A01BBE,5,1548724972000
1548725000593.7500000000,10,32.9200000000,A01BBE,5,1548724972000
1548725000609.3798828125,10,35.4500000000,A01BBE,5,1548724972000
1548725000625.0000000000,10,38.6300000000,A01BBE,5,1548724972000
