timestamp,pid,value,device_serial,device_number,entry_time
1548898456000.0000000000,13,0E-10,A01A3A,5,1548898456000
1548898456015.6201171875,13,0E-10,A01A3A,5,1548898456000
1548898456031.2500000000,13,0E-10,A01A3A,5,1548898456000
1548898456046.8798828125,13,0E-10,A01A3A,5,1548898456000
1548898456062.5000000000,13,0E-10,A01A3A,5,1548898456000
1548898456078.1201171875,13,0E-10,A01A3A,5,1548898456000
1548898456093.7500000000,13,0E-10,A01A3A,5,1548898456000
1548898456109.3798828125,13,0E-10,A01A3A,5,1548898456000
1548898456125.0000000000,13,0E-10,A01A3A,5,1548898456000
1548898456140.6201171875,13,0E-10,A01A3A,5,1548898456000
1548898456156.2500000000,13,0E-10,A01A3A,5,1548898456000
1548898456171.8798828125,13,0.0100000000,A01A3A,5,1548898456000
1548898456187.5000000000,13,0.0100000000,A01A3A,5,1548898456000
1548898456203.1201171875,13,0E-10,A01A3A,5,1548898456000
1548898456218.7500000000,13,-0.0300000000,A01A3A,5,1548898456000
1548898456234.3798828125,13,-0.0500000000,A01A3A,5,1548898456000
1548898456250.0000000000,13,-0.0500000000,A01A3A,5,1548898456000
1548898456265.6201171875,13,0E-10,A01A3A,5,1548898456000
1548898456281.2500000000,13,0.1300000000,A01A3A,5,1548898456000
1548898456296.8798828125,13,0.3600000000,A01A3A,5,1548898456000
1548898456312.5000000000,13,0.6600000000,A01A3A,5,1548898456000
1548898456328.1201171875,13,1.0100000000,A01A3A,5,1548898456000
1548898456343.7500000000,13,1.3700000000,A01A3A,5,1548898456000
1548898456359.3798828125,13,1.7200000000,A01A3A,5,1548898456000
1548898456375.0000000000,13,2.0600000000,A01A3A,5,1548898456000
1548898456390.6201171875,13,2.4000000000,A01A3A,5,1548898456000
1548898456406.2500000000,13,2.7900000000,A01A3A,5,1548898456000
1548898456421.8798828125,13,3.2400000000,A01A3A,5,1548898456000
1548898456437.5000000000,13,3.8000000000,A01A3A,5,1548898456000
1548898456453.1201171875,13,4.4200000000,A01A3A,5,1548898456000
1548898456468.7500000000,13,5.0600000000,A01A3A,5,1548898456000
1548898456484.3798828125,13,5.6600000000,A01A3A,5,1548898456000
1548898456500.0000000000,13,6.2000000000,A01A3A,5,1548898456000
1548898456515.6201171875,13,6.6800000000,A01A3A,5,1548898456000
1548898456531.2500000000,13,7.1500000000,A01A3A,5,1548898456000
1548898456546.8798828125,13,7.6800000000,A01A3A,5,1548898456000
1548898456562.5000000000,13,8.3100000000,A01A3A,5,1548898456000
1548898456578.1201171875,13,9.1400000000,A01A3A,5,1548898456000
1548898456593.7500000000,13,10.0900000000,A01A3A,5,1548898456000
1548898456609.3798828125,13,11.0400000000,A01A3A,5,1548898456000
1548898456625.0000000000,13,11.8800000000,A01A3A,5,1548898456000
1548898456640.6201171875,13,12.5600000000,A01A3A,5,1548898456000
1548898456656.2500000000,13,13.1400000000,A01A3A,5,1548898456000
1548898456671.8798828125,13,13.7600000000,A01A3A,5,1548898456000
1548898456687.5000000000,13,14.6500000000,A01A3A,5,1548898456000
1548898456703.1201171875,13,15.9600000000,A01A3A,5,1548898456000
1548898456718.7500000000,13,17.9100000000,A01A3A,5,1548898456000
1548898456734.3798828125,13,20.3200000000,A01A3A,5,1548898456000
1548898456750.0000000000,13,22.9000000000,A01A3A,5,1548898456000
1548898456765.6201171875,13,25.3800000000,A01A3A,5,1548898456000
1548898456781.2500000000,13,27.5800000000,A01A3A,5,1548898456000
1548898456796.8798828125,13,29.5700000000,A01A3A,5,1548898456000
1548898456812.5000000000,13,31.6800000000,A01A3A,5,1548898456000
1548898456828.1201171875,13,34.3200000000,A01A3A,5,1548898456000
1548898456843.7500000000,13,37.8100000000,A01A3A,5,1548898456000
1548898456859.3798828125,13,42.5400000000,A01A3A,5,1548898456000
1548898456875.0000000000,13,48.1500000000,A01A3A,5,1548898456000
1548898456890.6201171875,13,54.1000000000,A01A3A,5,1548898456000
1548898456906.2500000000,13,59.8300000000,A01A3A,5,1548898456000
1548898456921.8798828125,13,64.9700000000,A01A3A,5,1548898456000
1548898456937.5000000000,13,69.5800000000,A01A3A,5,1548898456000
1548898456953.1201171875,13,74.1400000000,A01A3A,5,1548898456000
1548898456968.7500000000,13,79.3400000000,A01A3A,5,1548898456000
1548898456984.3798828125,13,85.7100000000,A01A3A,5,1548898456000
1548898457000.0000000000,13,93.7600000000,A01A3A,5,1548898456000
1548898457015.6201171875,13,103.0000000000,A01A3A,5,1548898456000
1548898457031.2500000000,13,112.6200000000,A01A3A,5,1548898456000
1548898457046.8798828125,13,121.7300000000,A01A3A,5,1548898456000
1548898457062.5000000000,13,129.7700000000,A01A3A,5,1548898456000
1548898457078.1201171875,13,136.7500000000,A01A3A,5,1548898456000
1548898457093.7500000000,13,143.3000000000,A01A3A,5,1548898456000
1548898457109.3798828125,13,150.7500000000,A01A3A,5,1548898456000
1548898457125.0000000000,13,157.7700000000,A01A3A,5,1548898456000
1548898457140.6201171875,13,166.6400000000,A01A3A,5,1548898456000
1548898457156.2500000000,13,177.9500000000,A01A3A,5,1548898456000
1548898457171.8798828125,13,191.7900000000,A01A3A,5,1548898456000
1548898457187.5000000000,13,206.9700000000,A01A3A,5,1548898456000
1548898457203.1201171875,13,220.5700000000,A01A3A,5,1548898456000
1548898457218.7500000000,13,228.2500000000,A01A3A,5,1548898456000
1548898457234.3798828125,13,225.3600000000,A01A3A,5,1548898456000
1548898457250.0000000000,13,208.5300000000,A01A3A,5,1548898456000
1548898457265.6201171875,13,176.8700000000,A01A3A,5,1548898456000
1548898457281.2500000000,13,132.7600000000,A01A3A,5,1548898456000
1548898457296.8798828125,13,80.0500000000,A01A3A,5,1548898456000
1548898457312.5000000000,13,23.0700000000,A01A3A,5,1548898456000
1548898457328.1201171875,13,-34.9400000000,A01A3A,5,1548898456000
1548898457343.7500000000,13,-92.4400000000,A01A3A,5,1548898456000
1548898457359.3798828125,13,-149.1600000000,A01A3A,5,1548898456000
1548898457375.0000000000,13,-205.2300000000,A01A3A,5,1548898456000
1548898457390.6201171875,13,-260.3700000000,A01A3A,5,1548898456000
1548898457406.2500000000,13,-313.7400000000,A01A3A,5,1548898456000
1548898457421.8798828125,13,-363.8700000000,A01A3A,5,1548898456000
1548898457437.5000000000,13,-409.8300000000,A01A3A,5,1548898456000
1548898457453.1201171875,13,-450.9100000000,A01A3A,5,1548898456000
1548898457468.7500000000,13,-486.5000000000,A01A3A,5,1548898456000
1548898457484.3798828125,13,-515.7400000000,A01A3A,5,1548898456000
1548898457500.0000000000,13,-537.2300000000,A01A3A,5,1548898456000
1548898457515.6201171875,13,-549.2200000000,A01A3A,5,1548898456000
1548898457531.2500000000,13,-549.9600000000,A01A3A,5,1548898456000
1548898457546.8798828125,13,-538.3700000000,A01A3A,5,1548898456000
1548898457562.5000000000,13,-514.2100000000,A01A3A,5,1548898456000
1548898457578.1201171875,13,-478.6700000000,A01A3A,5,1548898456000
1548898457593.7500000000,13,-433.8800000000,A01A3A,5,1548898456000
1548898457609.3798828125,13,-382.4500000000,A01A3A,5,1548898456000
1548898457625.0000000000,13,-327.0200000000,A01A3A,5,1548898456000
1548898457640.6201171875,13,-269.8400000000,A01A3A,5,1548898456000
1548898457656.2500000000,13,-212.6300000000,A01A3A,5,1548898456000
1548898457671.8798828125,13,-156.6600000000,A01A3A,5,1548898456000
1548898457687.5000000000,13,-102.9500000000,A01A3A,5,1548898456000
1548898457703.1201171875,13,-52.3700000000,A01A3A,5,1548898456000
1548898457718.7500000000,13,-5.9000000000,A01A3A,5,1548898456000
1548898457734.3798828125,13,35.5800000000,A01A3A,5,1548898456000
1548898457750.0000000000,13,71.4300000000,A01A3A,5,1548898456000
1548898457765.6201171875,13,101.3500000000,A01A3A,5,1548898456000
1548898457781.2500000000,13,125.5000000000,A01A3A,5,1548898456000
1548898457796.8798828125,13,144.3800000000,A01A3A,5,1548898456000
1548898457812.5000000000,13,158.6900000000,A01A3A,5,1548898456000
1548898457828.1201171875,13,169.1500000000,A01A3A,5,1548898456000
1548898457843.7500000000,13,176.3700000000,A01A3A,5,1548898456000
1548898457859.3798828125,13,180.7500000000,A01A3A,5,1548898456000
1548898457875.0000000000,13,182.5700000000,A01A3A,5,1548898456000
1548898457890.6201171875,13,182.0700000000,A01A3A,5,1548898456000
1548898457906.2500000000,13,179.5100000000,A01A3A,5,1548898456000
1548898457921.8798828125,13,175.2300000000,A01A3A,5,1548898456000
1548898457937.5000000000,13,169.6500000000,A01A3A,5,1548898456000
1548898457953.1201171875,13,163.1800000000,A01A3A,5,1548898456000
1548898457968.7500000000,13,156.1500000000,A01A3A,5,1548898456000
1548898457984.3798828125,13,148.8100000000,A01A3A,5,1548898456000
1548898458000.0000000000,13,141.3000000000,A01A3A,5,1548898456000
1548898458015.6201171875,13,133.6900000000,A01A3A,5,1548898456000
1548898458031.2500000000,13,126.0200000000,A01A3A,5,1548898456000
1548898458046.8798828125,13,118.3300000000,A01A3A,5,1548898456000
1548898458062.5000000000,13,110.6900000000,A01A3A,5,1548898456000
1548898458078.1201171875,13,103.1600000000,A01A3A,5,1548898456000
1548898458093.7500000000,13,95.8000000000,A01A3A,5,1548898456000
1548898458109.3798828125,13,88.6800000000,A01A3A,5,1548898456000
1548898458125.0000000000,13,81.8300000000,A01A3A,5,1548898456000
1548898458140.6201171875,13,75.2500000000,A01A3A,5,1548898456000
1548898458156.2500000000,13,68.9500000000,A01A3A,5,1548898456000
1548898458171.8798828125,13,62.9500000000,A01A3A,5,1548898456000
1548898458187.5000000000,13,57.2500000000,A01A3A,5,1548898456000
1548898458203.1201171875,13,51.8600000000,A01A3A,5,1548898456000
1548898458218.7500000000,13,46.7800000000,A01A3A,5,1548898456000
1548898458234.3798828125,13,42.0300000000,A01A3A,5,1548898456000
1548898458250.0000000000,13,37.5900000000,A01A3A,5,1548898456000
1548898458265.6201171875,13,33.4500000000,A01A3A,5,1548898456000
1548898458281.2500000000,13,29.6100000000,A01A3A,5,1548898456000
1548898458296.8798828125,13,26.0700000000,A01A3A,5,1548898456000
1548898458312.5000000000,13,22.8100000000,A01A3A,5,1548898456000
1548898458328.1201171875,13,19.8300000000,A01A3A,5,1548898456000
1548898458343.7500000000,13,17.1100000000,A01A3A,5,1548898456000
1548898458359.3798828125,13,14.6700000000,A01A3A,5,1548898456000
1548898458375.0000000000,13,12.4800000000,A01A3A,5,1548898456000
1548898458390.6201171875,13,10.5400000000,A01A3A,5,1548898456000
1548898458406.2500000000,13,8.8300000000,A01A3A,5,1548898456000
1548898458421.8798828125,13,7.3500000000,A01A3A,5,1548898456000
1548898458437.5000000000,13,6.0700000000,A01A3A,5,1548898456000
1548898458453.1201171875,13,4.9700000000,A01A3A,5,1548898456000
1548898458468.7500000000,13,4.0500000000,A01A3A,5,1548898456000
1548898458484.3798828125,13,3.2700000000,A01A3A,5,1548898456000
1548898458500.0000000000,13,2.6200000000,A01A3A,5,1548898456000
1548898458515.6201171875,13,2.0900000000,A01A3A,5,1548898456000
1548898458531.2500000000,13,1.6500000000,A01A3A,5,1548898456000
1548898458546.8798828125,13,1.3000000000,A01A3A,5,1548898456000
1548898458562.5000000000,13,1.0100000000,A01A3A,5,1548898456000
1548898458578.1201171875,13,0.7900000000,A01A3A,5,1548898456000
1548898458593.7500000000,13,0.6100000000,A01A3A,5,1548898456000
1548898458609.3798828125,13,0.4800000000,A01A3A,5,1548898456000
1548898458625.0000000000,13,0.3700000000,A01A3A,5,1548898456000
1548898458640.6201171875,13,0.2900000000,A01A3A,5,1548898456000
1548898458656.2500000000,13,0.2400000000,A01A3A,5,1548898456000
1548898458671.8798828125,13,0.2000000000,A01A3A,5,1548898456000
1548898458687.5000000000,13,0.1800000000,A01A3A,5,1548898456000
1548898458703.1201171875,13,0.1700000000,A01A3A,5,1548898456000
1548898458718.7500000000,13,0.1700000000,A01A3A,5,1548898456000
1548898458734.3798828125,13,0.1800000000,A01A3A,5,1548898456000
1548898458750.0000000000,13,0.2000000000,A01A3A,5,1548898456000
1548898458765.6201171875,13,0.2300000000,A01A3A,5,1548898456000
1548898458781.2500000000,13,0.2600000000,A01A3A,5,1548898456000
1548898458796.8798828125,13,0.2900000000,A01A3A,5,1548898456000
1548898458812.5000000000,13,0.3300000000,A01A3A,5,1548898456000
1548898458828.1201171875,13,0.3800000000,A01A3A,5,1548898456000
1548898458843.7500000000,13,0.4200000000,A01A3A,5,1548898456000
1548898458859.3798828125,13,0.4600000000,A01A3A,5,1548898456000
1548898458875.0000000000,13,0.5100000000,A01A3A,5,1548898456000
1548898458890.6201171875,13,0.5600000000,A01A3A,5,1548898456000
1548898458906.2500000000,13,0.6100000000,A01A3A,5,1548898456000
1548898458921.8798828125,13,0.6700000000,A01A3A,5,1548898456000
1548898458937.5000000000,13,0.7300000000,A01A3A,5,1548898456000
1548898458953.1201171875,13,0.7900000000,A01A3A,5,1548898456000
1548898458968.7500000000,13,0.8500000000,A01A3A,5,1548898456000
1548898458984.3798828125,13,0.9300000000,A01A3A,5,1548898456000
1548898459000.0000000000,13,1.0000000000,A01A3A,5,1548898456000
1548898459015.6201171875,13,1.0900000000,A01A3A,5,1548898456000
1548898459031.2500000000,13,1.1900000000,A01A3A,5,1548898456000
1548898459046.8798828125,13,1.3000000000,A01A3A,5,1548898456000
1548898459062.5000000000,13,1.4200000000,A01A3A,5,1548898456000
1548898459078.1201171875,13,1.5600000000,A01A3A,5,1548898456000
1548898459093.7500000000,13,1.7200000000,A01A3A,5,1548898456000
1548898459109.3798828125,13,1.8900000000,A01A3A,5,1548898456000
1548898459125.0000000000,13,2.0800000000,A01A3A,5,1548898456000
1548898459140.6201171875,13,2.3000000000,A01A3A,5,1548898456000
1548898459156.2500000000,13,2.5400000000,A01A3A,5,1548898456000
1548898459171.8798828125,13,2.8000000000,A01A3A,5,1548898456000
1548898459187.5000000000,13,3.0900000000,A01A3A,5,1548898456000
1548898459203.1201171875,13,3.4000000000,A01A3A,5,1548898456000
1548898459218.7500000000,13,3.7600000000,A01A3A,5,1548898456000
1548898459234.3798828125,13,4.1400000000,A01A3A,5,1548898456000
1548898459250.0000000000,13,4.5600000000,A01A3A,5,1548898456000
1548898459265.6201171875,13,5.0100000000,A01A3A,5,1548898456000
1548898459281.2500000000,13,5.5000000000,A01A3A,5,1548898456000
1548898459296.8798828125,13,6.0200000000,A01A3A,5,1548898456000
1548898459312.5000000000,13,6.5900000000,A01A3A,5,1548898456000
1548898459328.1201171875,13,7.2000000000,A01A3A,5,1548898456000
1548898459343.7500000000,13,7.8500000000,A01A3A,5,1548898456000
1548898459359.3798828125,13,8.5500000000,A01A3A,5,1548898456000
1548898459375.0000000000,13,9.2800000000,A01A3A,5,1548898456000
1548898459390.6201171875,13,10.0700000000,A01A3A,5,1548898456000
1548898459406.2500000000,13,10.9000000000,A01A3A,5,1548898456000
1548898459421.8798828125,13,11.7700000000,A01A3A,5,1548898456000
1548898459437.5000000000,13,12.7000000000,A01A3A,5,1548898456000
1548898459453.1201171875,13,13.6600000000,A01A3A,5,1548898456000
1548898459468.7500000000,13,14.6900000000,A01A3A,5,1548898456000
1548898459484.3798828125,13,15.7900000000,A01A3A,5,1548898456000
1548898459500.0000000000,13,16.9400000000,A01A3A,5,1548898456000
1548898459515.6201171875,13,18.1600000000,A01A3A,5,1548898456000
1548898459531.2500000000,13,19.4200000000,A01A3A,5,1548898456000
1548898459546.8798828125,13,20.7000000000,A01A3A,5,1548898456000
1548898459562.5000000000,13,21.9600000000,A01A3A,5,1548898456000
1548898459578.1201171875,13,23.1100000000,A01A3A,5,1548898456000
1548898459593.7500000000,13,24.0800000000,A01A3A,5,1548898456000
1548898459609.3798828125,13,24.7300000000,A01A3A,5,1548898456000
1548898459625.0000000000,13,24.9600000000,A01A3A,5,1548898456000
1548898459640.6201171875,13,24.6600000000,A01A3A,5,1548898456000
1548898459656.2500000000,13,23.7000000000,A01A3A,5,1548898456000
1548898459671.8798828125,13,22.0400000000,A01A3A,5,1548898456000
1548898459687.5000000000,13,19.6600000000,A01A3A,5,1548898456000
1548898459703.1201171875,13,16.6000000000,A01A3A,5,1548898456000
1548898459718.7500000000,13,12.9200000000,A01A3A,5,1548898456000
1548898459734.3798828125,13,8.7800000000,A01A3A,5,1548898456000
1548898459750.0000000000,13,4.3500000000,A01A3A,5,1548898456000
1548898459765.6201171875,13,-0.1600000000,A01A3A,5,1548898456000
1548898459781.2500000000,13,-4.5400000000,A01A3A,5,1548898456000
1548898459796.8798828125,13,-8.5700000000,A01A3A,5,1548898456000
1548898459812.5000000000,13,-12.0800000000,A01A3A,5,1548898456000
1548898459828.1201171875,13,-14.9300000000,A01A3A,5,1548898456000
1548898459843.7500000000,13,-17.0400000000,A01A3A,5,1548898456000
1548898459859.3798828125,13,-18.4000000000,A01A3A,5,1548898456000
1548898459875.0000000000,13,-19.0300000000,A01A3A,5,1548898456000
1548898459890.6201171875,13,-19.0600000000,A01A3A,5,1548898456000
1548898459906.2500000000,13,-18.6200000000,A01A3A,5,1548898456000
1548898459921.8798828125,13,-17.8200000000,A01A3A,5,1548898456000
1548898459937.5000000000,13,-16.7800000000,A01A3A,5,1548898456000
1548898459953.1201171875,13,-15.5400000000,A01A3A,5,1548898456000
1548898459968.7500000000,13,-14.1600000000,A01A3A,5,1548898456000
1548898459984.3798828125,13,-12.6400000000,A01A3A,5,1548898456000
1548898460000.0000000000,13,-11.0100000000,A01A3A,5,1548898456000
1548898460015.6201171875,13,-9.3000000000,A01A3A,5,1548898456000
1548898460031.2500000000,13,-7.6000000000,A01A3A,5,1548898456000
1548898460046.8798828125,13,-5.9600000000,A01A3A,5,1548898456000
1548898460062.5000000000,13,-4.4100000000,A01A3A,5,1548898456000
1548898460078.1201171875,13,-2.9300000000,A01A3A,5,1548898456000
1548898460093.7500000000,13,-1.4600000000,A01A3A,5,1548898456000
1548898460109.3798828125,13,0.0700000000,A01A3A,5,1548898456000
1548898460125.0000000000,13,1.7300000000,A01A3A,5,1548898456000
1548898460140.6201171875,13,3.5500000000,A01A3A,5,1548898456000
1548898460156.2500000000,13,5.5400000000,A01A3A,5,1548898456000
1548898460171.8798828125,13,7.5200000000,A01A3A,5,1548898456000
1548898460187.5000000000,13,9.3800000000,A01A3A,5,1548898456000
1548898460203.1201171875,13,11.0700000000,A01A3A,5,1548898456000
1548898460218.7500000000,13,12.6600000000,A01A3A,5,1548898456000
1548898460234.3798828125,13,14.2900000000,A01A3A,5,1548898456000
1548898460250.0000000000,13,16.1400000000,A01A3A,5,1548898456000
1548898460265.6201171875,13,18.3500000000,A01A3A,5,1548898456000
1548898460281.2500000000,13,20.9700000000,A01A3A,5,1548898456000
1548898460296.8798828125,13,23.9600000000,A01A3A,5,1548898456000
1548898460312.5000000000,13,26.9000000000,A01A3A,5,1548898456000
1548898460328.1201171875,13,29.4700000000,A01A3A,5,1548898456000
1548898460343.7500000000,13,31.5400000000,A01A3A,5,1548898456000
1548898460359.3798828125,13,33.2200000000,A01A3A,5,1548898456000
1548898460375.0000000000,13,34.8200000000,A01A3A,5,1548898456000
1548898460390.6201171875,13,36.7300000000,A01A3A,5,1548898456000
1548898460406.2500000000,13,39.2500000000,A01A3A,5,1548898456000
1548898460421.8798828125,13,42.4600000000,A01A3A,5,1548898456000
1548898460437.5000000000,13,46.2400000000,A01A3A,5,1548898456000
1548898460453.1201171875,13,49.7300000000,A01A3A,5,1548898456000
1548898460468.7500000000,13,52.3400000000,A01A3A,5,1548898456000
1548898460484.3798828125,13,53.7700000000,A01A3A,5,1548898456000
1548898460500.0000000000,13,54.2100000000,A01A3A,5,1548898456000
1548898460515.6201171875,13,54.2000000000,A01A3A,5,1548898456000
1548898460531.2500000000,13,54.4100000000,A01A3A,5,1548898456000
1548898460546.8798828125,13,55.3700000000,A01A3A,5,1548898456000
1548898460562.5000000000,13,57.1600000000,A01A3A,5,1548898456000
1548898460578.1201171875,13,59.4600000000,A01A3A,5,1548898456000
1548898460593.7500000000,13,60.9300000000,A01A3A,5,1548898456000
1548898460609.3798828125,13,60.5000000000,A01A3A,5,1548898456000
1548898460625.0000000000,13,57.5500000000,A01A3A,5,1548898456000
1548898460640.6201171875,13,52.0800000000,A01A3A,5,1548898456000
1548898460656.2500000000,13,44.4400000000,A01A3A,5,1548898456000
1548898460671.8798828125,13,34.9600000000,A01A3A,5,1548898456000
1548898460687.5000000000,13,23.3800000000,A01A3A,5,1548898456000
1548898460703.1201171875,13,8.2600000000,A01A3A,5,1548898456000
1548898460718.7500000000,13,-8.0600000000,A01A3A,5,1548898456000
1548898460734.3798828125,13,-25.7000000000,A01A3A,5,1548898456000
1548898460750.0000000000,13,-45.2800000000,A01A3A,5,1548898456000
1548898460765.6201171875,13,-67.6500000000,A01A3A,5,1548898456000
1548898460781.2500000000,13,-93.6200000000,A01A3A,5,1548898456000
1548898460796.8798828125,13,-123.4400000000,A01A3A,5,1548898456000
1548898460812.5000000000,13,-156.0500000000,A01A3A,5,1548898456000
1548898460828.1201171875,13,-188.5100000000,A01A3A,5,1548898456000
1548898460843.7500000000,13,-216.1100000000,A01A3A,5,1548898456000
1548898460859.3798828125,13,-233.4000000000,A01A3A,5,1548898456000
1548898460875.0000000000,13,-236.8400000000,A01A3A,5,1548898456000
1548898460890.6201171875,13,-225.4700000000,A01A3A,5,1548898456000
1548898460906.2500000000,13,-201.7600000000,A01A3A,5,1548898456000
1548898460921.8798828125,13,-170.6900000000,A01A3A,5,1548898456000
1548898460937.5000000000,13,-137.9300000000,A01A3A,5,1548898456000
1548898460953.1201171875,13,-107.8200000000,A01A3A,5,1548898456000
1548898460968.7500000000,13,-82.3800000000,A01A3A,5,1548898456000
1548898460984.3798828125,13,-61.5800000000,A01A3A,5,1548898456000
1548898461000.0000000000,13,-44.3700000000,A01A3A,5,1548898456000
1548898461015.6201171875,13,-30.3800000000,A01A3A,5,1548898456000
1548898461031.2500000000,13,-19.5600000000,A01A3A,5,1548898456000
1548898461046.8798828125,13,-12.0000000000,A01A3A,5,1548898456000
1548898461062.5000000000,13,-7.2200000000,A01A3A,5,1548898456000
1548898461078.1201171875,13,-4.0500000000,A01A3A,5,1548898456000
1548898461093.7500000000,13,-0.9000000000,A01A3A,5,1548898456000
1548898461109.3798828125,13,3.5200000000,A01A3A,5,1548898456000
1548898461125.0000000000,13,9.5900000000,A01A3A,5,1548898456000
1548898461140.6201171875,13,16.8400000000,A01A3A,5,1548898456000
1548898461156.2500000000,13,23.8700000000,A01A3A,5,1548898456000
1548898461171.8798828125,13,29.3900000000,A01A3A,5,1548898456000
1548898461187.5000000000,13,32.6900000000,A01A3A,5,1548898456000
1548898461203.1201171875,13,33.7400000000,A01A3A,5,1548898456000
1548898461218.7500000000,13,33.0500000000,A01A3A,5,1548898456000
1548898461234.3798828125,13,31.3200000000,A01A3A,5,1548898456000
1548898461250.0000000000,13,29.1300000000,A01A3A,5,1548898456000
1548898461265.6201171875,13,26.7800000000,A01A3A,5,1548898456000
1548898461281.2500000000,13,24.3500000000,A01A3A,5,1548898456000
1548898461296.8798828125,13,21.5800000000,A01A3A,5,1548898456000
1548898461312.5000000000,13,18.2900000000,A01A3A,5,1548898456000
1548898461328.1201171875,13,14.4400000000,A01A3A,5,1548898456000
1548898461343.7500000000,13,10.1200000000,A01A3A,5,1548898456000
1548898461359.3798828125,13,5.4500000000,A01A3A,5,1548898456000
1548898461375.0000000000,13,0.4500000000,A01A3A,5,1548898456000
1548898461390.6201171875,13,-5.0000000000,A01A3A,5,1548898456000
1548898461406.2500000000,13,-11.1800000000,A01A3A,5,1548898456000
1548898461421.8798828125,13,-18.1900000000,A01A3A,5,1548898456000
1548898461437.5000000000,13,-25.8400000000,A01A3A,5,1548898456000
1548898461453.1201171875,13,-33.2500000000,A01A3A,5,1548898456000
1548898461468.7500000000,13,-38.9800000000,A01A3A,5,1548898456000
1548898461484.3798828125,13,-41.3900000000,A01A3A,5,1548898456000
1548898461500.0000000000,13,-39.2300000000,A01A3A,5,1548898456000
1548898461515.6201171875,13,-32.1500000000,A01A3A,5,1548898456000
1548898461531.2500000000,13,-20.9300000000,A01A3A,5,1548898456000
1548898461546.8798828125,13,-7.2200000000,A01A3A,5,1548898456000
1548898461562.5000000000,13,7.0200000000,A01A3A,5,1548898456000
1548898461578.1201171875,13,20.0800000000,A01A3A,5,1548898456000
1548898461593.7500000000,13,30.9200000000,A01A3A,5,1548898456000
1548898461609.3798828125,13,39.2100000000,A01A3A,5,1548898456000
1548898461625.0000000000,13,45.0800000000,A01A3A,5,1548898456000
1548898461640.6201171875,13,48.8400000000,A01A3A,5,1548898456000
1548898461656.2500000000,13,50.7600000000,A01A3A,5,1548898456000
1548898461671.8798828125,13,51.0900000000,A01A3A,5,1548898456000
1548898461687.5000000000,13,50.1500000000,A01A3A,5,1548898456000
1548898461703.1201171875,13,48.3800000000,A01A3A,5,1548898456000
1548898461718.7500000000,13,46.3200000000,A01A3A,5,1548898456000
1548898461734.3798828125,13,44.4100000000,A01A3A,5,1548898456000
1548898461750.0000000000,13,42.8800000000,A01A3A,5,1548898456000
1548898461765.6201171875,13,41.7000000000,A01A3A,5,1548898456000
1548898461781.2500000000,13,40.6300000000,A01A3A,5,1548898456000
1548898461796.8798828125,13,39.4600000000,A01A3A,5,1548898456000
1548898461812.5000000000,13,38.0500000000,A01A3A,5,1548898456000
1548898461828.1201171875,13,36.4700000000,A01A3A,5,1548898456000
1548898461843.7500000000,13,34.8800000000,A01A3A,5,1548898456000
1548898461859.3798828125,13,33.4200000000,A01A3A,5,1548898456000
1548898461875.0000000000,13,32.0500000000,A01A3A,5,1548898456000
1548898461890.6201171875,13,30.4800000000,A01A3A,5,1548898456000
1548898461906.2500000000,13,28.3000000000,A01A3A,5,1548898456000
1548898461921.8798828125,13,25.1000000000,A01A3A,5,1548898456000
1548898461937.5000000000,13,20.6700000000,A01A3A,5,1548898456000
1548898461953.1201171875,13,15.1400000000,A01A3A,5,1548898456000
1548898461968.7500000000,13,8.9400000000,A01A3A,5,1548898456000
1548898461984.3798828125,13,2.6700000000,A01A3A,5,1548898456000
1548898462000.0000000000,13,-3.1200000000,A01A3A,5,1548898456000
1548898462015.6201171875,13,-8.1800000000,A01A3A,5,1548898456000
1548898462031.2500000000,13,-12.5700000000,A01A3A,5,1548898456000
1548898462046.8798828125,13,-16.6900000000,A01A3A,5,1548898456000
1548898462062.5000000000,13,-21.1000000000,A01A3A,5,1548898456000
1548898462078.1201171875,13,-26.3600000000,A01A3A,5,1548898456000
1548898462093.7500000000,13,-32.8300000000,A01A3A,5,1548898456000
1548898462109.3798828125,13,-40.5300000000,A01A3A,5,1548898456000
1548898462125.0000000000,13,-48.9100000000,A01A3A,5,1548898456000
1548898462140.6201171875,13,-56.8400000000,A01A3A,5,1548898456000
1548898462156.2500000000,13,-62.7500000000,A01A3A,5,1548898456000
1548898462171.8798828125,13,-64.9800000000,A01A3A,5,1548898456000
1548898462187.5000000000,13,-62.3400000000,A01A3A,5,1548898456000
1548898462203.1201171875,13,-54.5600000000,A01A3A,5,1548898456000
1548898462218.7500000000,13,-42.5100000000,A01A3A,5,1548898456000
1548898462234.3798828125,13,-27.9700000000,A01A3A,5,1548898456000
1548898462250.0000000000,13,-13.0700000000,A01A3A,5,1548898456000
1548898462265.6201171875,13,0.4700000000,A01A3A,5,1548898456000
1548898462281.2500000000,13,11.7100000000,A01A3A,5,1548898456000
1548898462296.8798828125,13,20.5700000000,A01A3A,5,1548898456000
1548898462312.5000000000,13,27.5000000000,A01A3A,5,1548898456000
1548898462328.1201171875,13,32.9300000000,A01A3A,5,1548898456000
1548898462343.7500000000,13,37.0300000000,A01A3A,5,1548898456000
1548898462359.3798828125,13,39.6300000000,A01A3A,5,1548898456000
1548898462375.0000000000,13,40.5400000000,A01A3A,5,1548898456000
1548898462390.6201171875,13,39.8500000000,A01A3A,5,1548898456000
1548898462406.2500000000,13,38.0800000000,A01A3A,5,1548898456000
1548898462421.8798828125,13,36.0500000000,A01A3A,5,1548898456000
1548898462437.5000000000,13,34.5000000000,A01A3A,5,1548898456000
1548898462453.1201171875,13,33.8500000000,A01A3A,5,1548898456000
1548898462468.7500000000,13,33.9600000000,A01A3A,5,1548898456000
1548898462484.3798828125,13,34.3000000000,A01A3A,5,1548898456000
1548898462500.0000000000,13,34.2700000000,A01A3A,5,1548898456000
1548898462515.6201171875,13,33.4800000000,A01A3A,5,1548898456000
1548898462531.2500000000,13,32.0000000000,A01A3A,5,1548898456000
1548898462546.8798828125,13,30.2100000000,A01A3A,5,1548898456000
1548898462562.5000000000,13,28.5600000000,A01A3A,5,1548898456000
1548898462578.1201171875,13,27.3000000000,A01A3A,5,1548898456000
1548898462593.7500000000,13,26.2700000000,A01A3A,5,1548898456000
1548898462609.3798828125,13,24.9300000000,A01A3A,5,1548898456000
1548898462625.0000000000,13,22.5800000000,A01A3A,5,1548898456000
1548898462640.6201171875,13,18.7100000000,A01A3A,5,1548898456000
1548898462656.2500000000,13,13.3000000000,A01A3A,5,1548898456000
1548898462671.8798828125,13,6.8400000000,A01A3A,5,1548898456000
1548898462687.5000000000,13,0.1600000000,A01A3A,5,1548898456000
1548898462703.1201171875,13,-5.8900000000,A01A3A,5,1548898456000
1548898462718.7500000000,13,-10.8500000000,A01A3A,5,1548898456000
1548898462734.3798828125,13,-14.8100000000,A01A3A,5,1548898456000
1548898462750.0000000000,13,-18.3500000000,A01A3A,5,1548898456000
1548898462765.6201171875,13,-22.2800000000,A01A3A,5,1548898456000
1548898462781.2500000000,13,-27.3400000000,A01A3A,5,1548898456000
1548898462796.8798828125,13,-33.8500000000,A01A3A,5,1548898456000
1548898462812.5000000000,13,-41.6000000000,A01A3A,5,1548898456000
1548898462828.1201171875,13,-49.8900000000,A01A3A,5,1548898456000
1548898462843.7500000000,13,-57.5600000000,A01A3A,5,1548898456000
1548898462859.3798828125,13,-63.2000000000,A01A3A,5,1548898456000
1548898462875.0000000000,13,-65.4500000000,A01A3A,5,1548898456000
1548898462890.6201171875,13,-63.3100000000,A01A3A,5,1548898456000
1548898462906.2500000000,13,-56.4900000000,A01A3A,5,1548898456000
1548898462921.8798828125,13,-45.5100000000,A01A3A,5,1548898456000
1548898462937.5000000000,13,-31.7100000000,A01A3A,5,1548898456000
1548898462953.1201171875,13,-16.8600000000,A01A3A,5,1548898456000
1548898462968.7500000000,13,-2.6900000000,A01A3A,5,1548898456000
1548898462984.3798828125,13,9.5100000000,A01A3A,5,1548898456000
1548898463000.0000000000,13,19.1300000000,A01A3A,5,1548898456000
1548898463015.6201171875,13,26.1600000000,A01A3A,5,1548898456000
1548898463031.2500000000,13,30.9900000000,A01A3A,5,1548898456000
1548898463046.8798828125,13,34.0800000000,A01A3A,5,1548898456000
1548898463062.5000000000,13,35.8000000000,A01A3A,5,1548898456000
1548898463078.1201171875,13,36.3600000000,A01A3A,5,1548898456000
1548898463093.7500000000,13,35.9400000000,A01A3A,5,1548898456000
1548898463109.3798828125,13,34.8300000000,A01A3A,5,1548898456000
1548898463125.0000000000,13,33.3900000000,A01A3A,5,1548898456000
1548898463140.6201171875,13,32.0500000000,A01A3A,5,1548898456000
1548898463156.2500000000,13,31.1600000000,A01A3A,5,1548898456000
1548898463171.8798828125,13,30.8500000000,A01A3A,5,1548898456000
1548898463187.5000000000,13,31.0100000000,A01A3A,5,1548898456000
1548898463203.1201171875,13,31.2700000000,A01A3A,5,1548898456000
1548898463218.7500000000,13,31.2600000000,A01A3A,5,1548898456000
1548898463234.3798828125,13,30.7400000000,A01A3A,5,1548898456000
1548898463250.0000000000,13,29.7500000000,A01A3A,5,1548898456000
1548898463265.6201171875,13,28.4700000000,A01A3A,5,1548898456000
1548898463281.2500000000,13,27.1300000000,A01A3A,5,1548898456000
1548898463296.8798828125,13,25.7700000000,A01A3A,5,1548898456000
1548898463312.5000000000,13,24.1300000000,A01A3A,5,1548898456000
1548898463328.1201171875,13,21.7400000000,A01A3A,5,1548898456000
1548898463343.7500000000,13,18.2300000000,A01A3A,5,1548898456000
1548898463359.3798828125,13,13.4800000000,A01A3A,5,1548898456000
1548898463375.0000000000,13,7.7900000000,A01A3A,5,1548898456000
1548898463390.6201171875,13,1.8300000000,A01A3A,5,1548898456000
1548898463406.2500000000,13,-3.7300000000,A01A3A,5,1548898456000
1548898463421.8798828125,13,-8.4000000000,A01A3A,5,1548898456000
1548898463437.5000000000,13,-12.1700000000,A01A3A,5,1548898456000
1548898463453.1201171875,13,-15.4500000000,A01A3A,5,1548898456000
1548898463468.7500000000,13,-18.9300000000,A01A3A,5,1548898456000
1548898463484.3798828125,13,-23.3500000000,A01A3A,5,1548898456000
1548898463500.0000000000,13,-29.1700000000,A01A3A,5,1548898456000
1548898463515.6201171875,13,-36.5100000000,A01A3A,5,1548898456000
1548898463531.2500000000,13,-44.9100000000,A01A3A,5,1548898456000
1548898463546.8798828125,13,-53.4200000000,A01A3A,5,1548898456000
1548898463562.5000000000,13,-60.6300000000,A01A3A,5,1548898456000
1548898463578.1201171875,13,-64.9900000000,A01A3A,5,1548898456000
1548898463593.7500000000,13,-65.2100000000,A01A3A,5,1548898456000
1548898463609.3798828125,13,-60.6900000000,A01A3A,5,1548898456000
1548898463625.0000000000,13,-51.7200000000,A01A3A,5,1548898456000
1548898463640.6201171875,13,-39.5000000000,A01A3A,5,1548898456000
1548898463656.2500000000,13,-25.7700000000,A01A3A,5,1548898456000
1548898463671.8798828125,13,-12.2700000000,A01A3A,5,1548898456000
1548898463687.5000000000,13,-0.3600000000,A01A3A,5,1548898456000
1548898463703.1201171875,13,9.3100000000,A01A3A,5,1548898456000
1548898463718.7500000000,13,16.6500000000,A01A3A,5,1548898456000
1548898463734.3798828125,13,21.9300000000,A01A3A,5,1548898456000
1548898463750.0000000000,13,25.4900000000,A01A3A,5,1548898456000
1548898463765.6201171875,13,27.6000000000,A01A3A,5,1548898456000
1548898463781.2500000000,13,28.4500000000,A01A3A,5,1548898456000
1548898463796.8798828125,13,28.2300000000,A01A3A,5,1548898456000
1548898463812.5000000000,13,27.2300000000,A01A3A,5,1548898456000
1548898463828.1201171875,13,25.8200000000,A01A3A,5,1548898456000
1548898463843.7500000000,13,24.3400000000,A01A3A,5,1548898456000
1548898463859.3798828125,13,23.0100000000,A01A3A,5,1548898456000
1548898463875.0000000000,13,21.9700000000,A01A3A,5,1548898456000
1548898463890.6201171875,13,21.1900000000,A01A3A,5,1548898456000
1548898463906.2500000000,13,20.6300000000,A01A3A,5,1548898456000
1548898463921.8798828125,13,20.2600000000,A01A3A,5,1548898456000
1548898463937.5000000000,13,20.0500000000,A01A3A,5,1548898456000
1548898463953.1201171875,13,19.9600000000,A01A3A,5,1548898456000
1548898463968.7500000000,13,19.7700000000,A01A3A,5,1548898456000
1548898463984.3798828125,13,19.1800000000,A01A3A,5,1548898456000
1548898464000.0000000000,13,17.7800000000,A01A3A,5,1548898456000
1548898464015.6201171875,13,15.3500000000,A01A3A,5,1548898456000
1548898464031.2500000000,13,11.8700000000,A01A3A,5,1548898456000
1548898464046.8798828125,13,7.6700000000,A01A3A,5,1548898456000
1548898464062.5000000000,13,3.2100000000,A01A3A,5,1548898456000
1548898464078.1201171875,13,-1.0600000000,A01A3A,5,1548898456000
1548898464093.7500000000,13,-4.9400000000,A01A3A,5,1548898456000
1548898464109.3798828125,13,-8.4900000000,A01A3A,5,1548898456000
1548898464125.0000000000,13,-12.0700000000,A01A3A,5,1548898456000
1548898464140.6201171875,13,-16.1600000000,A01A3A,5,1548898456000
1548898464156.2500000000,13,-21.1400000000,A01A3A,5,1548898456000
1548898464171.8798828125,13,-27.1900000000,A01A3A,5,1548898456000
1548898464187.5000000000,13,-34.1700000000,A01A3A,5,1548898456000
1548898464203.1201171875,13,-41.5100000000,A01A3A,5,1548898456000
1548898464218.7500000000,13,-48.2600000000,A01A3A,5,1548898456000
1548898464234.3798828125,13,-53.1600000000,A01A3A,5,1548898456000
1548898464250.0000000000,13,-54.9300000000,A01A3A,5,1548898456000
1548898464265.6201171875,13,-52.6400000000,A01A3A,5,1548898456000
1548898464281.2500000000,13,-46.0500000000,A01A3A,5,1548898456000
1548898464296.8798828125,13,-35.8200000000,A01A3A,5,1548898456000
1548898464312.5000000000,13,-23.3200000000,A01A3A,5,1548898456000
1548898464328.1201171875,13,-10.2900000000,A01A3A,5,1548898456000
1548898464343.7500000000,13,1.6900000000,A01A3A,5,1548898456000
1548898464359.3798828125,13,11.6000000000,A01A3A,5,1548898456000
1548898464375.0000000000,13,19.0700000000,A01A3A,5,1548898456000
1548898464390.6201171875,13,24.2700000000,A01A3A,5,1548898456000
1548898464406.2500000000,13,27.5700000000,A01A3A,5,1548898456000
1548898464421.8798828125,13,29.3600000000,A01A3A,5,1548898456000
1548898464437.5000000000,13,29.8700000000,A01A3A,5,1548898456000
1548898464453.1201171875,13,29.2600000000,A01A3A,5,1548898456000
1548898464468.7500000000,13,27.7600000000,A01A3A,5,1548898456000
1548898464484.3798828125,13,25.7200000000,A01A3A,5,1548898456000
1548898464500.0000000000,13,23.6100000000,A01A3A,5,1548898456000
1548898464515.6201171875,13,21.8600000000,A01A3A,5,1548898456000
1548898464531.2500000000,13,20.7400000000,A01A3A,5,1548898456000
1548898464546.8798828125,13,20.3000000000,A01A3A,5,1548898456000
1548898464562.5000000000,13,20.3300000000,A01A3A,5,1548898456000
1548898464578.1201171875,13,20.6000000000,A01A3A,5,1548898456000
1548898464593.7500000000,13,20.8600000000,A01A3A,5,1548898456000
1548898464609.3798828125,13,20.9800000000,A01A3A,5,1548898456000
1548898464625.0000000000,13,20.8200000000,A01A3A,5,1548898456000
1548898464640.6201171875,13,20.2200000000,A01A3A,5,1548898456000
1548898464656.2500000000,13,18.9100000000,A01A3A,5,1548898456000
1548898464671.8798828125,13,16.6100000000,A01A3A,5,1548898456000
1548898464687.5000000000,13,13.1900000000,A01A3A,5,1548898456000
1548898464703.1201171875,13,8.7300000000,A01A3A,5,1548898456000
1548898464718.7500000000,13,3.6000000000,A01A3A,5,1548898456000
1548898464734.3798828125,13,-1.6900000000,A01A3A,5,1548898456000
1548898464750.0000000000,13,-6.7200000000,A01A3A,5,1548898456000
1548898464765.6201171875,13,-11.2800000000,A01A3A,5,1548898456000
1548898464781.2500000000,13,-15.4300000000,A01A3A,5,1548898456000
1548898464796.8798828125,13,-19.4400000000,A01A3A,5,1548898456000
1548898464812.5000000000,13,-23.7100000000,A01A3A,5,1548898456000
1548898464828.1201171875,13,-28.6600000000,A01A3A,5,1548898456000
1548898464843.7500000000,13,-34.6400000000,A01A3A,5,1548898456000
1548898464859.3798828125,13,-41.8000000000,A01A3A,5,1548898456000
1548898464875.0000000000,13,-49.8200000000,A01A3A,5,1548898456000
1548898464890.6201171875,13,-57.8300000000,A01A3A,5,1548898456000
1548898464906.2500000000,13,-64.3600000000,A01A3A,5,1548898456000
1548898464921.8798828125,13,-67.7300000000,A01A3A,5,1548898456000
1548898464937.5000000000,13,-66.5500000000,A01A3A,5,1548898456000
1548898464953.1201171875,13,-60.3700000000,A01A3A,5,1548898456000
1548898464968.7500000000,13,-49.8600000000,A01A3A,5,1548898456000
1548898464984.3798828125,13,-36.6600000000,A01A3A,5,1548898456000
1548898465000.0000000000,13,-22.7800000000,A01A3A,5,1548898456000
1548898465015.6201171875,13,-9.9500000000,A01A3A,5,1548898456000
1548898465031.2500000000,13,0.8700000000,A01A3A,5,1548898456000
1548898465046.8798828125,13,9.5000000000,A01A3A,5,1548898456000
1548898465062.5000000000,13,16.2900000000,A01A3A,5,1548898456000
1548898465078.1201171875,13,21.6200000000,A01A3A,5,1548898456000
1548898465093.7500000000,13,25.6900000000,A01A3A,5,1548898456000
1548898465109.3798828125,13,28.4700000000,A01A3A,5,1548898456000
1548898465125.0000000000,13,29.9000000000,A01A3A,5,1548898456000
1548898465140.6201171875,13,30.0800000000,A01A3A,5,1548898456000
1548898465156.2500000000,13,29.3500000000,A01A3A,5,1548898456000
1548898465171.8798828125,13,28.2300000000,A01A3A,5,1548898456000
1548898465187.5000000000,13,27.2100000000,A01A3A,5,1548898456000
1548898465203.1201171875,13,26.6100000000,A01A3A,5,1548898456000
1548898465218.7500000000,13,26.4100000000,A01A3A,5,1548898456000
1548898465234.3798828125,13,26.4600000000,A01A3A,5,1548898456000
1548898465250.0000000000,13,26.5000000000,A01A3A,5,1548898456000
1548898465265.6201171875,13,26.3700000000,A01A3A,5,1548898456000
1548898465281.2500000000,13,26.0900000000,A01A3A,5,1548898456000
1548898465296.8798828125,13,25.7600000000,A01A3A,5,1548898456000
1548898465312.5000000000,13,25.4200000000,A01A3A,5,1548898456000
1548898465328.1201171875,13,24.9400000000,A01A3A,5,1548898456000
1548898465343.7500000000,13,23.9300000000,A01A3A,5,1548898456000
1548898465359.3798828125,13,21.8700000000,A01A3A,5,1548898456000
1548898465375.0000000000,13,18.4200000000,A01A3A,5,1548898456000
1548898465390.6201171875,13,13.5300000000,A01A3A,5,1548898456000
1548898465406.2500000000,13,7.6200000000,A01A3A,5,1548898456000
1548898465421.8798828125,13,1.4100000000,A01A3A,5,1548898456000
1548898465437.5000000000,13,-4.3500000000,A01A3A,5,1548898456000
1548898465453.1201171875,13,-9.2300000000,A01A3A,5,1548898456000
1548898465468.7500000000,13,-13.2700000000,A01A3A,5,1548898456000
1548898465484.3798828125,13,-16.9600000000,A01A3A,5,1548898456000
1548898465500.0000000000,13,-21.0200000000,A01A3A,5,1548898456000
1548898465515.6201171875,13,-26.0800000000,A01A3A,5,1548898456000
1548898465531.2500000000,13,-32.4800000000,A01A3A,5,1548898456000
1548898465546.8798828125,13,-40.1000000000,A01A3A,5,1548898456000
1548898465562.5000000000,13,-48.3600000000,A01A3A,5,1548898456000
1548898465578.1201171875,13,-56.2600000000,A01A3A,5,1548898456000
1548898465593.7500000000,13,-62.4900000000,A01A3A,5,1548898456000
1548898465609.3798828125,13,-65.6700000000,A01A3A,5,1548898456000
1548898465625.0000000000,13,-64.7000000000,A01A3A,5,1548898456000
1548898465640.6201171875,13,-59.1200000000,A01A3A,5,1548898456000
1548898465656.2500000000,13,-49.3100000000,A01A3A,5,1548898456000
1548898465671.8798828125,13,-36.5200000000,A01A3A,5,1548898456000
1548898465687.5000000000,13,-22.4900000000,A01A3A,5,1548898456000
1548898465703.1201171875,13,-8.9800000000,A01A3A,5,1548898456000
1548898465718.7500000000,13,2.7200000000,A01A3A,5,1548898456000
1548898465734.3798828125,13,12.0600000000,A01A3A,5,1548898456000
1548898465750.0000000000,13,19.1100000000,A01A3A,5,1548898456000
1548898465765.6201171875,13,24.3300000000,A01A3A,5,1548898456000
1548898465781.2500000000,13,28.2200000000,A01A3A,5,1548898456000
1548898465796.8798828125,13,31.0400000000,A01A3A,5,1548898456000
1548898465812.5000000000,13,32.8600000000,A01A3A,5,1548898456000
1548898465828.1201171875,13,33.6800000000,A01A3A,5,1548898456000
1548898465843.7500000000,13,33.5600000000,A01A3A,5,1548898456000
1548898465859.3798828125,13,32.7400000000,A01A3A,5,1548898456000
1548898465875.0000000000,13,31.6200000000,A01A3A,5,1548898456000
1548898465890.6201171875,13,30.5800000000,A01A3A,5,1548898456000
1548898465906.2500000000,13,29.8800000000,A01A3A,5,1548898456000
1548898465921.8798828125,13,29.5700000000,A01A3A,5,1548898456000
1548898465937.5000000000,13,29.4900000000,A01A3A,5,1548898456000
1548898465953.1201171875,13,29.4000000000,A01A3A,5,1548898456000
1548898465968.7500000000,13,29.1300000000,A01A3A,5,1548898456000
1548898465984.3798828125,13,28.6000000000,A01A3A,5,1548898456000
1548898466000.0000000000,13,27.8000000000,A01A3A,5,1548898456000
1548898466015.6201171875,13,26.6900000000,A01A3A,5,1548898456000
1548898466031.2500000000,13,25.1200000000,A01A3A,5,1548898456000
1548898466046.8798828125,13,22.8100000000,A01A3A,5,1548898456000
1548898466062.5000000000,13,19.5200000000,A01A3A,5,1548898456000
1548898466078.1201171875,13,15.1600000000,A01A3A,5,1548898456000
1548898466093.7500000000,13,9.8900000000,A01A3A,5,1548898456000
1548898466109.3798828125,13,4.1800000000,A01A3A,5,1548898456000
1548898466125.0000000000,13,-1.4300000000,A01A3A,5,1548898456000
1548898466140.6201171875,13,-6.5100000000,A01A3A,5,1548898456000
1548898466156.2500000000,13,-10.9600000000,A01A3A,5,1548898456000
1548898466171.8798828125,13,-15.0400000000,A01A3A,5,1548898456000
1548898466187.5000000000,13,-19.3000000000,A01A3A,5,1548898456000
1548898466203.1201171875,13,-24.3500000000,A01A3A,5,1548898456000
1548898466218.7500000000,13,-30.6300000000,A01A3A,5,1548898456000
1548898466234.3798828125,13,-38.1800000000,A01A3A,5,1548898456000
1548898466250.0000000000,13,-46.5500000000,A01A3A,5,1548898456000
1548898466265.6201171875,13,-54.6900000000,A01A3A,5,1548898456000
1548898466281.2500000000,13,-61.1600000000,A01A3A,5,1548898456000
1548898466296.8798828125,13,-64.4100000000,A01A3A,5,1548898456000
1548898466312.5000000000,13,-63.2400000000,A01A3A,5,1548898456000
1548898466328.1201171875,13,-57.2700000000,A01A3A,5,1548898456000
1548898466343.7500000000,13,-47.1300000000,A01A3A,5,1548898456000
1548898466359.3798828125,13,-34.3300000000,A01A3A,5,1548898456000
1548898466375.0000000000,13,-20.8000000000,A01A3A,5,1548898456000
1548898466390.6201171875,13,-8.2600000000,A01A3A,5,1548898456000
1548898466406.2500000000,13,2.2700000000,A01A3A,5,1548898456000
1548898466421.8798828125,13,10.5400000000,A01A3A,5,1548898456000
1548898466437.5000000000,13,16.9200000000,A01A3A,5,1548898456000
1548898466453.1201171875,13,21.8700000000,A01A3A,5,1548898456000
1548898466468.7500000000,13,25.6600000000,A01A3A,5,1548898456000
1548898466484.3798828125,13,28.2200000000,A01A3A,5,1548898456000
1548898466500.0000000000,13,29.3800000000,A01A3A,5,1548898456000
1548898466515.6201171875,13,29.1300000000,A01A3A,5,1548898456000
1548898466531.2500000000,13,27.8000000000,A01A3A,5,1548898456000
1548898466546.8798828125,13,26.0000000000,A01A3A,5,1548898456000
1548898466562.5000000000,13,24.3900000000,A01A3A,5,1548898456000
1548898466578.1201171875,13,23.4200000000,A01A3A,5,1548898456000
1548898466593.7500000000,13,23.1600000000,A01A3A,5,1548898456000
1548898466609.3798828125,13,23.4200000000,A01A3A,5,1548898456000
1548898466625.0000000000,13,23.8600000000,A01A3A,5,1548898456000
1548898466640.6201171875,13,24.2000000000,A01A3A,5,1548898456000
1548898466656.2500000000,13,24.2900000000,A01A3A,5,1548898456000
1548898466671.8798828125,13,24.0300000000,A01A3A,5,1548898456000
1548898466687.5000000000,13,23.3200000000,A01A3A,5,1548898456000
1548898466703.1201171875,13,21.9900000000,A01A3A,5,1548898456000
1548898466718.7500000000,13,19.8200000000,A01A3A,5,1548898456000
1548898466734.3798828125,13,16.7000000000,A01A3A,5,1548898456000
1548898466750.0000000000,13,12.6600000000,A01A3A,5,1548898456000
1548898466765.6201171875,13,7.9400000000,A01A3A,5,1548898456000
1548898466781.2500000000,13,2.9200000000,A01A3A,5,1548898456000
1548898466796.8798828125,13,-2.0300000000,A01A3A,5,1548898456000
1548898466812.5000000000,13,-6.6800000000,A01A3A,5,1548898456000
1548898466828.1201171875,13,-11.0700000000,A01A3A,5,1548898456000
1548898466843.7500000000,13,-15.4900000000,A01A3A,5,1548898456000
1548898466859.3798828125,13,-20.4400000000,A01A3A,5,1548898456000
1548898466875.0000000000,13,-26.3400000000,A01A3A,5,1548898456000
1548898466890.6201171875,13,-33.3100000000,A01A3A,5,1548898456000
1548898466906.2500000000,13,-40.8700000000,A01A3A,5,1548898456000
1548898466921.8798828125,13,-47.8900000000,A01A3A,5,1548898456000
1548898466937.5000000000,13,-52.8300000000,A01A3A,5,1548898456000
1548898466953.1201171875,13,-54.1400000000,A01A3A,5,1548898456000
1548898466968.7500000000,13,-50.9300000000,A01A3A,5,1548898456000
1548898466984.3798828125,13,-43.2500000000,A01A3A,5,1548898456000
1548898467000.0000000000,13,-32.1800000000,A01A3A,5,1548898456000
1548898467015.6201171875,13,-19.3600000000,A01A3A,5,1548898456000
1548898467031.2500000000,13,-6.5000000000,A01A3A,5,1548898456000
1548898467046.8798828125,13,5.1500000000,A01A3A,5,1548898456000
1548898467062.5000000000,13,15.0300000000,A01A3A,5,1548898456000
1548898467078.1201171875,13,23.0100000000,A01A3A,5,1548898456000
1548898467093.7500000000,13,29.1900000000,A01A3A,5,1548898456000
1548898467109.3798828125,13,33.5600000000,A01A3A,5,1548898456000
1548898467125.0000000000,13,36.0000000000,A01A3A,5,1548898456000
1548898467140.6201171875,13,36.4500000000,A01A3A,5,1548898456000
1548898467156.2500000000,13,35.1400000000,A01A3A,5,1548898456000
1548898467171.8798828125,13,32.7000000000,A01A3A,5,1548898456000
1548898467187.5000000000,13,30.0100000000,A01A3A,5,1548898456000
1548898467203.1201171875,13,27.9100000000,A01A3A,5,1548898456000
1548898467218.7500000000,13,26.8400000000,A01A3A,5,1548898456000
1548898467234.3798828125,13,26.7900000000,A01A3A,5,1548898456000
1548898467250.0000000000,13,27.3000000000,A01A3A,5,1548898456000
1548898467265.6201171875,13,27.8000000000,A01A3A,5,1548898456000
1548898467281.2500000000,13,27.8300000000,A01A3A,5,1548898456000
1548898467296.8798828125,13,27.2700000000,A01A3A,5,1548898456000
1548898467312.5000000000,13,26.3100000000,A01A3A,5,1548898456000
1548898467328.1201171875,13,25.2300000000,A01A3A,5,1548898456000
1548898467343.7500000000,13,24.1900000000,A01A3A,5,1548898456000
1548898467359.3798828125,13,23.0800000000,A01A3A,5,1548898456000
1548898467375.0000000000,13,21.4700000000,A01A3A,5,1548898456000
1548898467390.6201171875,13,18.9200000000,A01A3A,5,1548898456000
1548898467406.2500000000,13,15.0800000000,A01A3A,5,1548898456000
1548898467421.8798828125,13,10.0100000000,A01A3A,5,1548898456000
1548898467437.5000000000,13,4.1300000000,A01A3A,5,1548898456000
1548898467453.1201171875,13,-1.9500000000,A01A3A,5,1548898456000
1548898467468.7500000000,13,-7.6500000000,A01A3A,5,1548898456000
1548898467484.3798828125,13,-12.6600000000,A01A3A,5,1548898456000
1548898467500.0000000000,13,-17.0400000000,A01A3A,5,1548898456000
1548898467515.6201171875,13,-21.1800000000,A01A3A,5,1548898456000
1548898467531.2500000000,13,-25.6200000000,A01A3A,5,1548898456000
1548898467546.8798828125,13,-30.9400000000,A01A3A,5,1548898456000
1548898467562.5000000000,13,-37.4600000000,A01A3A,5,1548898456000
1548898467578.1201171875,13,-45.2400000000,A01A3A,5,1548898456000
1548898467593.7500000000,13,-53.7600000000,A01A3A,5,1548898456000
1548898467609.3798828125,13,-61.9600000000,A01A3A,5,1548898456000
1548898467625.0000000000,13,-68.3100000000,A01A3A,5,1548898456000
1548898467640.6201171875,13,-71.1300000000,A01A3A,5,1548898456000
1548898467656.2500000000,13,-69.1900000000,A01A3A,5,1548898456000
1548898467671.8798828125,13,-62.0900000000,A01A3A,5,1548898456000
1548898467687.5000000000,13,-50.6000000000,A01A3A,5,1548898456000
1548898467703.1201171875,13,-36.4100000000,A01A3A,5,1548898456000
1548898467718.7500000000,13,-21.6100000000,A01A3A,5,1548898456000
1548898467734.3798828125,13,-8.0200000000,A01A3A,5,1548898456000
1548898467750.0000000000,13,3.3100000000,A01A3A,5,1548898456000
1548898467765.6201171875,13,12.2000000000,A01A3A,5,1548898456000
1548898467781.2500000000,13,19.0700000000,A01A3A,5,1548898456000
1548898467796.8798828125,13,24.4900000000,A01A3A,5,1548898456000
1548898467812.5000000000,13,28.7600000000,A01A3A,5,1548898456000
1548898467828.1201171875,13,31.8300000000,A01A3A,5,1548898456000
1548898467843.7500000000,13,33.4900000000,A01A3A,5,1548898456000
1548898467859.3798828125,13,33.6500000000,A01A3A,5,1548898456000
1548898467875.0000000000,13,32.6000000000,A01A3A,5,1548898456000
1548898467890.6201171875,13,31.0400000000,A01A3A,5,1548898456000
1548898467906.2500000000,13,29.7800000000,A01A3A,5,1548898456000
1548898467921.8798828125,13,29.4400000000,A01A3A,5,1548898456000
1548898467937.5000000000,13,30.1300000000,A01A3A,5,1548898456000
1548898467953.1201171875,13,31.5000000000,A01A3A,5,1548898456000
1548898467968.7500000000,13,32.8500000000,A01A3A,5,1548898456000
1548898467984.3798828125,13,33.6100000000,A01A3A,5,1548898456000
1548898468000.0000000000,13,33.5100000000,A01A3A,5,1548898456000
1548898468015.6201171875,13,32.7100000000,A01A3A,5,1548898456000
1548898468031.2500000000,13,31.6100000000,A01A3A,5,1548898456000
1548898468046.8798828125,13,30.5000000000,A01A3A,5,1548898456000
1548898468062.5000000000,13,29.3600000000,A01A3A,5,1548898456000
1548898468078.1201171875,13,27.7900000000,A01A3A,5,1548898456000
1548898468093.7500000000,13,25.2000000000,A01A3A,5,1548898456000
1548898468109.3798828125,13,21.1800000000,A01A3A,5,1548898456000
1548898468125.0000000000,13,15.7300000000,A01A3A,5,1548898456000
1548898468140.6201171875,13,9.3400000000,A01A3A,5,1548898456000
1548898468156.2500000000,13,2.8100000000,A01A3A,5,1548898456000
1548898468171.8798828125,13,-3.0800000000,A01A3A,5,1548898456000
1548898468187.5000000000,13,-7.9400000000,A01A3A,5,1548898456000
1548898468203.1201171875,13,-11.8900000000,A01A3A,5,1548898456000
1548898468218.7500000000,13,-15.5100000000,A01A3A,5,1548898456000
1548898468234.3798828125,13,-19.5400000000,A01A3A,5,1548898456000
1548898468250.0000000000,13,-24.6200000000,A01A3A,5,1548898456000
1548898468265.6201171875,13,-31.0600000000,A01A3A,5,1548898456000
1548898468281.2500000000,13,-38.7600000000,A01A3A,5,1548898456000
1548898468296.8798828125,13,-47.2700000000,A01A3A,5,1548898456000
1548898468312.5000000000,13,-55.7800000000,A01A3A,5,1548898456000
1548898468328.1201171875,13,-63.1700000000,A01A3A,5,1548898456000
1548898468343.7500000000,13,-68.1100000000,A01A3A,5,1548898456000
1548898468359.3798828125,13,-69.2900000000,A01A3A,5,1548898456000
1548898468375.0000000000,13,-65.8200000000,A01A3A,5,1548898456000
1548898468390.6201171875,13,-57.6100000000,A01A3A,5,1548898456000
1548898468406.2500000000,13,-45.5700000000,A01A3A,5,1548898456000
1548898468421.8798828125,13,-31.4100000000,A01A3A,5,1548898456000
1548898468437.5000000000,13,-17.1000000000,A01A3A,5,1548898456000
1548898468453.1201171875,13,-4.3300000000,A01A3A,5,1548898456000
1548898468468.7500000000,13,5.9800000000,A01A3A,5,1548898456000
1548898468484.3798828125,13,13.7500000000,A01A3A,5,1548898456000
1548898468500.0000000000,13,19.4200000000,A01A3A,5,1548898456000
1548898468515.6201171875,13,23.6200000000,A01A3A,5,1548898456000
1548898468531.2500000000,13,26.7500000000,A01A3A,5,1548898456000
1548898468546.8798828125,13,28.9700000000,A01A3A,5,1548898456000
1548898468562.5000000000,13,30.2600000000,A01A3A,5,1548898456000
1548898468578.1201171875,13,30.5800000000,A01A3A,5,1548898456000
1548898468593.7500000000,13,30.0600000000,A01A3A,5,1548898456000
1548898468609.3798828125,13,28.9700000000,A01A3A,5,1548898456000
1548898468625.0000000000,13,27.6800000000,A01A3A,5,1548898456000
1548898468640.6201171875,13,26.5200000000,A01A3A,5,1548898456000
1548898468656.2500000000,13,25.7000000000,A01A3A,5,1548898456000
1548898468671.8798828125,13,25.2600000000,A01A3A,5,1548898456000
1548898468687.5000000000,13,25.1000000000,A01A3A,5,1548898456000
1548898468703.1201171875,13,25.0100000000,A01A3A,5,1548898456000
1548898468718.7500000000,13,24.7100000000,A01A3A,5,1548898456000
1548898468734.3798828125,13,23.8900000000,A01A3A,5,1548898456000
1548898468750.0000000000,13,22.3200000000,A01A3A,5,1548898456000
1548898468765.6201171875,13,19.8100000000,A01A3A,5,1548898456000
1548898468781.2500000000,13,16.2700000000,A01A3A,5,1548898456000
1548898468796.8798828125,13,11.7300000000,A01A3A,5,1548898456000
1548898468812.5000000000,13,6.3100000000,A01A3A,5,1548898456000
1548898468828.1201171875,13,0.2000000000,A01A3A,5,1548898456000
1548898468843.7500000000,13,-6.3100000000,A01A3A,5,1548898456000
1548898468859.3798828125,13,-12.9500000000,A01A3A,5,1548898456000
1548898468875.0000000000,13,-19.4000000000,A01A3A,5,1548898456000
1548898468890.6201171875,13,-25.4800000000,A01A3A,5,1548898456000
1548898468906.2500000000,13,-31.2000000000,A01A3A,5,1548898456000
1548898468921.8798828125,13,-36.9700000000,A01A3A,5,1548898456000
1548898468937.5000000000,13,-43.5900000000,A01A3A,5,1548898456000
1548898468953.1201171875,13,-51.8700000000,A01A3A,5,1548898456000
1548898468968.7500000000,13,-62.0300000000,A01A3A,5,1548898456000
1548898468984.3798828125,13,-73.1500000000,A01A3A,5,1548898456000
1548898469000.0000000000,13,-83.0800000000,A01A3A,5,1548898456000
1548898469015.6201171875,13,-89.0900000000,A01A3A,5,1548898456000
1548898469031.2500000000,13,-88.9600000000,A01A3A,5,1548898456000
1548898469046.8798828125,13,-82.1000000000,A01A3A,5,1548898456000
1548898469062.5000000000,13,-69.9600000000,A01A3A,5,1548898456000
1548898469078.1201171875,13,-55.4800000000,A01A3A,5,1548898456000
1548898469093.7500000000,13,-41.8000000000,A01A3A,5,1548898456000
1548898469109.3798828125,13,-31.1400000000,A01A3A,5,1548898456000
1548898469125.0000000000,13,-24.1400000000,A01A3A,5,1548898456000
1548898469140.6201171875,13,-20.2100000000,A01A3A,5,1548898456000
1548898469156.2500000000,13,-18.3100000000,A01A3A,5,1548898456000
1548898469171.8798828125,13,-17.5700000000,A01A3A,5,1548898456000
1548898469187.5000000000,13,-17.3600000000,A01A3A,5,1548898456000
1548898469203.1201171875,13,-16.9300000000,A01A3A,5,1548898456000
1548898469218.7500000000,13,-14.9700000000,A01A3A,5,1548898456000
1548898469234.3798828125,13,-9.8500000000,A01A3A,5,1548898456000
1548898469250.0000000000,13,-0.1900000000,A01A3A,5,1548898456000
1548898469265.6201171875,13,14.2300000000,A01A3A,5,1548898456000
1548898469281.2500000000,13,32.1000000000,A01A3A,5,1548898456000
1548898469296.8798828125,13,50.9000000000,A01A3A,5,1548898456000
1548898469312.5000000000,13,67.8400000000,A01A3A,5,1548898456000
1548898469328.1201171875,13,80.8800000000,A01A3A,5,1548898456000
1548898469343.7500000000,13,89.3000000000,A01A3A,5,1548898456000
1548898469359.3798828125,13,93.6800000000,A01A3A,5,1548898456000
1548898469375.0000000000,13,95.2300000000,A01A3A,5,1548898456000
1548898469390.6201171875,13,95.1400000000,A01A3A,5,1548898456000
1548898469406.2500000000,13,94.1800000000,A01A3A,5,1548898456000
1548898469421.8798828125,13,92.6600000000,A01A3A,5,1548898456000
1548898469437.5000000000,13,90.5600000000,A01A3A,5,1548898456000
1548898469453.1201171875,13,87.8300000000,A01A3A,5,1548898456000
1548898469468.7500000000,13,84.3100000000,A01A3A,5,1548898456000
1548898469484.3798828125,13,79.7600000000,A01A3A,5,1548898456000
1548898469500.0000000000,13,73.7600000000,A01A3A,5,1548898456000
1548898469515.6201171875,13,65.8200000000,A01A3A,5,1548898456000
1548898469531.2500000000,13,55.6400000000,A01A3A,5,1548898456000
1548898469546.8798828125,13,43.3300000000,A01A3A,5,1548898456000
1548898469562.5000000000,13,29.5100000000,A01A3A,5,1548898456000
1548898469578.1201171875,13,15.1600000000,A01A3A,5,1548898456000
1548898469593.7500000000,13,1.2700000000,A01A3A,5,1548898456000
1548898469609.3798828125,13,-11.3700000000,A01A3A,5,1548898456000
1548898469625.0000000000,13,-22.4700000000,A01A3A,5,1548898456000
1548898469640.6201171875,13,-32.3300000000,A01A3A,5,1548898456000
1548898469656.2500000000,13,-41.7200000000,A01A3A,5,1548898456000
1548898469671.8798828125,13,-51.6900000000,A01A3A,5,1548898456000
1548898469687.5000000000,13,-63.0900000000,A01A3A,5,1548898456000
1548898469703.1201171875,13,-75.9700000000,A01A3A,5,1548898456000
1548898469718.7500000000,13,-89.1400000000,A01A3A,5,1548898456000
1548898469734.3798828125,13,-100.1300000000,A01A3A,5,1548898456000
1548898469750.0000000000,13,-105.8100000000,A01A3A,5,1548898456000
1548898469765.6201171875,13,-103.5000000000,A01A3A,5,1548898456000
1548898469781.2500000000,13,-92.1500000000,A01A3A,5,1548898456000
1548898469796.8798828125,13,-73.0100000000,A01A3A,5,1548898456000
1548898469812.5000000000,13,-49.3900000000,A01A3A,5,1548898456000
1548898469828.1201171875,13,-25.6500000000,A01A3A,5,1548898456000
1548898469843.7500000000,13,-5.7300000000,A01A3A,5,1548898456000
1548898469859.3798828125,13,8.0000000000,A01A3A,5,1548898456000
1548898469875.0000000000,13,15.2800000000,A01A3A,5,1548898456000
1548898469890.6201171875,13,17.8300000000,A01A3A,5,1548898456000
1548898469906.2500000000,13,18.7400000000,A01A3A,5,1548898456000
1548898469921.8798828125,13,21.5400000000,A01A3A,5,1548898456000
1548898469937.5000000000,13,29.2100000000,A01A3A,5,1548898456000
1548898469953.1201171875,13,43.1900000000,A01A3A,5,1548898456000
1548898469968.7500000000,13,62.7000000000,A01A3A,5,1548898456000
1548898469984.3798828125,13,84.6600000000,A01A3A,5,1548898456000
1548898470000.0000000000,13,104.5700000000,A01A3A,5,1548898456000
1548898470015.6201171875,13,117.9500000000,A01A3A,5,1548898456000
1548898470031.2500000000,13,121.9400000000,A01A3A,5,1548898456000
1548898470046.8798828125,13,116.3000000000,A01A3A,5,1548898456000
1548898470062.5000000000,13,103.1700000000,A01A3A,5,1548898456000
1548898470078.1201171875,13,86.0700000000,A01A3A,5,1548898456000
1548898470093.7500000000,13,68.3400000000,A01A3A,5,1548898456000
1548898470109.3798828125,13,52.1800000000,A01A3A,5,1548898456000
1548898470125.0000000000,13,38.4300000000,A01A3A,5,1548898456000
1548898470140.6201171875,13,27.1000000000,A01A3A,5,1548898456000
1548898470156.2500000000,13,18.0100000000,A01A3A,5,1548898456000
1548898470171.8798828125,13,11.1700000000,A01A3A,5,1548898456000
1548898470187.5000000000,13,6.6800000000,A01A3A,5,1548898456000
1548898470203.1201171875,13,4.3900000000,A01A3A,5,1548898456000
1548898470218.7500000000,13,3.6300000000,A01A3A,5,1548898456000
1548898470234.3798828125,13,3.3300000000,A01A3A,5,1548898456000
1548898470250.0000000000,13,2.3700000000,A01A3A,5,1548898456000
1548898470265.6201171875,13,-0.0200000000,A01A3A,5,1548898456000
1548898470281.2500000000,13,-4.0000000000,A01A3A,5,1548898456000
1548898470296.8798828125,13,-9.2400000000,A01A3A,5,1548898456000
1548898470312.5000000000,13,-15.1600000000,A01A3A,5,1548898456000
1548898470328.1201171875,13,-21.2500000000,A01A3A,5,1548898456000
1548898470343.7500000000,13,-27.1100000000,A01A3A,5,1548898456000
1548898470359.3798828125,13,-32.3800000000,A01A3A,5,1548898456000
1548898470375.0000000000,13,-36.5200000000,A01A3A,5,1548898456000
1548898470390.6201171875,13,-38.7500000000,A01A3A,5,1548898456000
1548898470406.2500000000,13,-38.1900000000,A01A3A,5,1548898456000
1548898470421.8798828125,13,-34.2600000000,A01A3A,5,1548898456000
1548898470437.5000000000,13,-26.9900000000,A01A3A,5,1548898456000
1548898470453.1201171875,13,-17.1800000000,A01A3A,5,1548898456000
1548898470468.7500000000,13,-6.2300000000,A01A3A,5,1548898456000
1548898470484.3798828125,13,4.3400000000,A01A3A,5,1548898456000
1548898470500.0000000000,13,13.3300000000,A01A3A,5,1548898456000
1548898470515.6201171875,13,20.1400000000,A01A3A,5,1548898456000
1548898470531.2500000000,13,24.7700000000,A01A3A,5,1548898456000
1548898470546.8798828125,13,27.5000000000,A01A3A,5,1548898456000
1548898470562.5000000000,13,28.6600000000,A01A3A,5,1548898456000
1548898470578.1201171875,13,28.4300000000,A01A3A,5,1548898456000
1548898470593.7500000000,13,26.9400000000,A01A3A,5,1548898456000
1548898470609.3798828125,13,24.4300000000,A01A3A,5,1548898456000
1548898470625.0000000000,13,21.3500000000,A01A3A,5,1548898456000
1548898470640.6201171875,13,18.2800000000,A01A3A,5,1548898456000
1548898470656.2500000000,13,15.7800000000,A01A3A,5,1548898456000
1548898470671.8798828125,13,14.1200000000,A01A3A,5,1548898456000
1548898470687.5000000000,13,13.2400000000,A01A3A,5,1548898456000
1548898470703.1201171875,13,12.8000000000,A01A3A,5,1548898456000
1548898470718.7500000000,13,12.4000000000,A01A3A,5,1548898456000
1548898470734.3798828125,13,11.7600000000,A01A3A,5,1548898456000
1548898470750.0000000000,13,10.7800000000,A01A3A,5,1548898456000
1548898470765.6201171875,13,9.4900000000,A01A3A,5,1548898456000
1548898470781.2500000000,13,7.9200000000,A01A3A,5,1548898456000
1548898470796.8798828125,13,5.9600000000,A01A3A,5,1548898456000
1548898470812.5000000000,13,3.4300000000,A01A3A,5,1548898456000
1548898470828.1201171875,13,0.1900000000,A01A3A,5,1548898456000
1548898470843.7500000000,13,-3.7300000000,A01A3A,5,1548898456000
1548898470859.3798828125,13,-8.0500000000,A01A3A,5,1548898456000
1548898470875.0000000000,13,-12.3800000000,A01A3A,5,1548898456000
1548898470890.6201171875,13,-16.4100000000,A01A3A,5,1548898456000
1548898470906.2500000000,13,-20.0300000000,A01A3A,5,1548898456000
1548898470921.8798828125,13,-23.5300000000,A01A3A,5,1548898456000
1548898470937.5000000000,13,-27.4800000000,A01A3A,5,1548898456000
1548898470953.1201171875,13,-32.4200000000,A01A3A,5,1548898456000
1548898470968.7500000000,13,-38.6000000000,A01A3A,5,1548898456000
1548898470984.3798828125,13,-45.6600000000,A01A3A,5,1548898456000
1548898471000.0000000000,13,-52.5200000000,A01A3A,5,1548898456000
1548898471015.6201171875,13,-57.6100000000,A01A3A,5,1548898456000
1548898471031.2500000000,13,-59.3100000000,A01A3A,5,1548898456000
1548898471046.8798828125,13,-56.5100000000,A01A3A,5,1548898456000
1548898471062.5000000000,13,-49.0900000000,A01A3A,5,1548898456000
1548898471078.1201171875,13,-37.9900000000,A01A3A,5,1548898456000
1548898471093.7500000000,13,-24.9800000000,A01A3A,5,1548898456000
1548898471109.3798828125,13,-12.0200000000,A01A3A,5,1548898456000
1548898471125.0000000000,13,-0.7000000000,A01A3A,5,1548898456000
1548898471140.6201171875,13,8.2200000000,A01A3A,5,1548898456000
1548898471156.2500000000,13,14.8100000000,A01A3A,5,1548898456000
1548898471171.8798828125,13,19.6000000000,A01A3A,5,1548898456000
1548898471187.5000000000,13,23.2000000000,A01A3A,5,1548898456000
1548898471203.1201171875,13,25.9600000000,A01A3A,5,1548898456000
1548898471218.7500000000,13,27.8500000000,A01A3A,5,1548898456000
1548898471234.3798828125,13,28.6700000000,A01A3A,5,1548898456000
1548898471250.0000000000,13,28.3100000000,A01A3A,5,1548898456000
1548898471265.6201171875,13,26.9400000000,A01A3A,5,1548898456000
1548898471281.2500000000,13,24.9500000000,A01A3A,5,1548898456000
1548898471296.8798828125,13,22.8700000000,A01A3A,5,1548898456000
1548898471312.5000000000,13,21.0200000000,A01A3A,5,1548898456000
1548898471328.1201171875,13,19.5400000000,A01A3A,5,1548898456000
1548898471343.7500000000,13,18.3100000000,A01A3A,5,1548898456000
1548898471359.3798828125,13,17.1400000000,A01A3A,5,1548898456000
1548898471375.0000000000,13,15.8900000000,A01A3A,5,1548898456000
1548898471390.6201171875,13,14.5200000000,A01A3A,5,1548898456000
1548898471406.2500000000,13,13.0300000000,A01A3A,5,1548898456000
1548898471421.8798828125,13,11.4100000000,A01A3A,5,1548898456000
1548898471437.5000000000,13,9.5200000000,A01A3A,5,1548898456000
1548898471453.1201171875,13,7.1500000000,A01A3A,5,1548898456000
1548898471468.7500000000,13,4.1700000000,A01A3A,5,1548898456000
1548898471484.3798828125,13,0.6000000000,A01A3A,5,1548898456000
1548898471500.0000000000,13,-3.3500000000,A01A3A,5,1548898456000
1548898471515.6201171875,13,-7.3800000000,A01A3A,5,1548898456000
1548898471531.2500000000,13,-11.2400000000,A01A3A,5,1548898456000
1548898471546.8798828125,13,-14.8800000000,A01A3A,5,1548898456000
1548898471562.5000000000,13,-18.5100000000,A01A3A,5,1548898456000
1548898471578.1201171875,13,-22.5100000000,A01A3A,5,1548898456000
1548898471593.7500000000,13,-27.3000000000,A01A3A,5,1548898456000
1548898471609.3798828125,13,-33.1000000000,A01A3A,5,1548898456000
1548898471625.0000000000,13,-39.7100000000,A01A3A,5,1548898456000
1548898471640.6201171875,13,-46.3900000000,A01A3A,5,1548898456000
1548898471656.2500000000,13,-51.8900000000,A01A3A,5,1548898456000
1548898471671.8798828125,13,-54.7000000000,A01A3A,5,1548898456000
1548898471687.5000000000,13,-53.5800000000,A01A3A,5,1548898456000
1548898471703.1201171875,13,-47.9500000000,A01A3A,5,1548898456000
1548898471718.7500000000,13,-38.3100000000,A01A3A,5,1548898456000
1548898471734.3798828125,13,-26.0600000000,A01A3A,5,1548898456000
1548898471750.0000000000,13,-13.1100000000,A01A3A,5,1548898456000
1548898471765.6201171875,13,-1.1900000000,A01A3A,5,1548898456000
1548898471781.2500000000,13,8.6000000000,A01A3A,5,1548898456000
1548898471796.8798828125,13,15.9400000000,A01A3A,5,1548898456000
1548898471812.5000000000,13,21.1200000000,A01A3A,5,1548898456000
1548898471828.1201171875,13,24.6500000000,A01A3A,5,1548898456000
1548898471843.7500000000,13,26.9700000000,A01A3A,5,1548898456000
1548898471859.3798828125,13,28.3000000000,A01A3A,5,1548898456000
1548898471875.0000000000,13,28.7300000000,A01A3A,5,1548898456000
1548898471890.6201171875,13,28.3700000000,A01A3A,5,1548898456000
1548898471906.2500000000,13,27.3900000000,A01A3A,5,1548898456000
1548898471921.8798828125,13,26.0700000000,A01A3A,5,1548898456000
1548898471937.5000000000,13,24.6300000000,A01A3A,5,1548898456000
1548898471953.1201171875,13,23.2400000000,A01A3A,5,1548898456000
1548898471968.7500000000,13,21.9500000000,A01A3A,5,1548898456000
1548898471984.3798828125,13,20.7700000000,A01A3A,5,1548898456000
1548898472000.0000000000,13,19.6500000000,A01A3A,5,1548898456000
1548898472015.6201171875,13,18.5300000000,A01A3A,5,1548898456000
1548898472031.2500000000,13,17.2700000000,A01A3A,5,1548898456000
1548898472046.8798828125,13,15.7100000000,A01A3A,5,1548898456000
1548898472062.5000000000,13,13.6600000000,A01A3A,5,1548898456000
1548898472078.1201171875,13,11.0200000000,A01A3A,5,1548898456000
1548898472093.7500000000,13,7.8000000000,A01A3A,5,1548898456000
1548898472109.3798828125,13,4.1300000000,A01A3A,5,1548898456000
1548898472125.0000000000,13,0.2500000000,A01A3A,5,1548898456000
1548898472140.6201171875,13,-3.6000000000,A01A3A,5,1548898456000
1548898472156.2500000000,13,-7.2800000000,A01A3A,5,1548898456000
1548898472171.8798828125,13,-10.8300000000,A01A3A,5,1548898456000
1548898472187.5000000000,13,-14.4500000000,A01A3A,5,1548898456000
1548898472203.1201171875,13,-18.4400000000,A01A3A,5,1548898456000
1548898472218.7500000000,13,-23.1200000000,A01A3A,5,1548898456000
1548898472234.3798828125,13,-28.6800000000,A01A3A,5,1548898456000
1548898472250.0000000000,13,-35.0300000000,A01A3A,5,1548898456000
1548898472265.6201171875,13,-41.6900000000,A01A3A,5,1548898456000
1548898472281.2500000000,13,-47.7500000000,A01A3A,5,1548898456000
1548898472296.8798828125,13,-51.9700000000,A01A3A,5,1548898456000
1548898472312.5000000000,13,-53.1000000000,A01A3A,5,1548898456000
1548898472328.1201171875,13,-50.2500000000,A01A3A,5,1548898456000
1548898472343.7500000000,13,-43.3100000000,A01A3A,5,1548898456000
1548898472359.3798828125,13,-33.0500000000,A01A3A,5,1548898456000
1548898472375.0000000000,13,-21.0100000000,A01A3A,5,1548898456000
1548898472390.6201171875,13,-8.9500000000,A01A3A,5,1548898456000
1548898472406.2500000000,13,1.6400000000,A01A3A,5,1548898456000
1548898472421.8798828125,13,9.9300000000,A01A3A,5,1548898456000
1548898472437.5000000000,13,15.8800000000,A01A3A,5,1548898456000
1548898472453.1201171875,13,19.9100000000,A01A3A,5,1548898456000
1548898472468.7500000000,13,22.5900000000,A01A3A,5,1548898456000
1548898472484.3798828125,13,24.1900000000,A01A3A,5,1548898456000
1548898472500.0000000000,13,24.7700000000,A01A3A,5,1548898456000
1548898472515.6201171875,13,24.2600000000,A01A3A,5,1548898456000
1548898472531.2500000000,13,22.7100000000,A01A3A,5,1548898456000
1548898472546.8798828125,13,20.4500000000,A01A3A,5,1548898456000
1548898472562.5000000000,13,17.9900000000,A01A3A,5,1548898456000
1548898472578.1201171875,13,15.8900000000,A01A3A,5,1548898456000
1548898472593.7500000000,13,14.4800000000,A01A3A,5,1548898456000
1548898472609.3798828125,13,13.7900000000,A01A3A,5,1548898456000
1548898472625.0000000000,13,13.5300000000,A01A3A,5,1548898456000
1548898472640.6201171875,13,13.2900000000,A01A3A,5,1548898456000
1548898472656.2500000000,13,12.7000000000,A01A3A,5,1548898456000
1548898472671.8798828125,13,11.5400000000,A01A3A,5,1548898456000
1548898472687.5000000000,13,9.7400000000,A01A3A,5,1548898456000
1548898472703.1201171875,13,7.4300000000,A01A3A,5,1548898456000
1548898472718.7500000000,13,4.7700000000,A01A3A,5,1548898456000
1548898472734.3798828125,13,1.9400000000,A01A3A,5,1548898456000
1548898472750.0000000000,13,-0.9400000000,A01A3A,5,1548898456000
1548898472765.6201171875,13,-3.8700000000,A01A3A,5,1548898456000
1548898472781.2500000000,13,-6.9500000000,A01A3A,5,1548898456000
1548898472796.8798828125,13,-10.4000000000,A01A3A,5,1548898456000
1548898472812.5000000000,13,-14.4800000000,A01A3A,5,1548898456000
1548898472828.1201171875,13,-19.4200000000,A01A3A,5,1548898456000
1548898472843.7500000000,13,-25.3000000000,A01A3A,5,1548898456000
1548898472859.3798828125,13,-31.9400000000,A01A3A,5,1548898456000
1548898472875.0000000000,13,-38.8800000000,A01A3A,5,1548898456000
1548898472890.6201171875,13,-45.3000000000,A01A3A,5,1548898456000
1548898472906.2500000000,13,-50.1000000000,A01A3A,5,1548898456000
1548898472921.8798828125,13,-52.1700000000,A01A3A,5,1548898456000
1548898472937.5000000000,13,-50.6700000000,A01A3A,5,1548898456000
1548898472953.1201171875,13,-45.2700000000,A01A3A,5,1548898456000
1548898472968.7500000000,13,-36.4000000000,A01A3A,5,1548898456000
1548898472984.3798828125,13,-25.1100000000,A01A3A,5,1548898456000
1548898473000.0000000000,13,-12.8600000000,A01A3A,5,1548898456000
1548898473015.6201171875,13,-1.0900000000,A01A3A,5,1548898456000
1548898473031.2500000000,13,9.0400000000,A01A3A,5,1548898456000
1548898473046.8798828125,13,16.9200000000,A01A3A,5,1548898456000
1548898473062.5000000000,13,22.4200000000,A01A3A,5,1548898456000
1548898473078.1201171875,13,25.8000000000,A01A3A,5,1548898456000
1548898473093.7500000000,13,27.4500000000,A01A3A,5,1548898456000
1548898473109.3798828125,13,27.7200000000,A01A3A,5,1548898456000
1548898473125.0000000000,13,26.9000000000,A01A3A,5,1548898456000
1548898473140.6201171875,13,25.2700000000,A01A3A,5,1548898456000
1548898473156.2500000000,13,23.1000000000,A01A3A,5,1548898456000
1548898473171.8798828125,13,20.7200000000,A01A3A,5,1548898456000
1548898473187.5000000000,13,18.5000000000,A01A3A,5,1548898456000
1548898473203.1201171875,13,16.7100000000,A01A3A,5,1548898456000
1548898473218.7500000000,13,15.5000000000,A01A3A,5,1548898456000
1548898473234.3798828125,13,14.8900000000,A01A3A,5,1548898456000
1548898473250.0000000000,13,14.7200000000,A01A3A,5,1548898456000
1548898473265.6201171875,13,14.7500000000,A01A3A,5,1548898456000
1548898473281.2500000000,13,14.7200000000,A01A3A,5,1548898456000
1548898473296.8798828125,13,14.2800000000,A01A3A,5,1548898456000
1548898473312.5000000000,13,13.1000000000,A01A3A,5,1548898456000
1548898473328.1201171875,13,10.9300000000,A01A3A,5,1548898456000
1548898473343.7500000000,13,7.6400000000,A01A3A,5,1548898456000
1548898473359.3798828125,13,3.3900000000,A01A3A,5,1548898456000
1548898473375.0000000000,13,-1.4500000000,A01A3A,5,1548898456000
1548898473390.6201171875,13,-6.3800000000,A01A3A,5,1548898456000
1548898473406.2500000000,13,-10.9500000000,A01A3A,5,1548898456000
1548898473421.8798828125,13,-15.0000000000,A01A3A,5,1548898456000
1548898473437.5000000000,13,-18.7800000000,A01A3A,5,1548898456000
1548898473453.1201171875,13,-22.7500000000,A01A3A,5,1548898456000
1548898473468.7500000000,13,-27.4900000000,A01A3A,5,1548898456000
1548898473484.3798828125,13,-33.4100000000,A01A3A,5,1548898456000
1548898473500.0000000000,13,-40.5400000000,A01A3A,5,1548898456000
1548898473515.6201171875,13,-48.3600000000,A01A3A,5,1548898456000
1548898473531.2500000000,13,-55.8400000000,A01A3A,5,1548898456000
1548898473546.8798828125,13,-61.6200000000,A01A3A,5,1548898456000
1548898473562.5000000000,13,-64.3000000000,A01A3A,5,1548898456000
1548898473578.1201171875,13,-62.8300000000,A01A3A,5,1548898456000
1548898473593.7500000000,13,-56.8900000000,A01A3A,5,1548898456000
1548898473609.3798828125,13,-47.0200000000,A01A3A,5,1548898456000
1548898473625.0000000000,13,-34.5000000000,A01A3A,5,1548898456000
1548898473640.6201171875,13,-21.0300000000,A01A3A,5,1548898456000
1548898473656.2500000000,13,-8.2400000000,A01A3A,5,1548898456000
1548898473671.8798828125,13,2.6500000000,A01A3A,5,1548898456000
1548898473687.5000000000,13,11.0900000000,A01A3A,5,1548898456000
1548898473703.1201171875,13,17.1400000000,A01A3A,5,1548898456000
1548898473718.7500000000,13,21.1900000000,A01A3A,5,1548898456000
1548898473734.3798828125,13,23.7700000000,A01A3A,5,1548898456000
1548898473750.0000000000,13,25.3000000000,A01A3A,5,1548898456000
1548898473765.6201171875,13,26.0600000000,A01A3A,5,1548898456000
1548898473781.2500000000,13,26.1800000000,A01A3A,5,1548898456000
1548898473796.8798828125,13,25.7900000000,A01A3A,5,1548898456000
1548898473812.5000000000,13,25.0100000000,A01A3A,5,1548898456000
1548898473828.1201171875,13,24.0300000000,A01A3A,5,1548898456000
1548898473843.7500000000,13,23.1000000000,A01A3A,5,1548898456000
1548898473859.3798828125,13,22.3600000000,A01A3A,5,1548898456000
1548898473875.0000000000,13,21.8800000000,A01A3A,5,1548898456000
1548898473890.6201171875,13,21.6000000000,A01A3A,5,1548898456000
1548898473906.2500000000,13,21.3400000000,A01A3A,5,1548898456000
1548898473921.8798828125,13,20.8800000000,A01A3A,5,1548898456000
1548898473937.5000000000,13,19.9900000000,A01A3A,5,1548898456000
1548898473953.1201171875,13,18.5100000000,A01A3A,5,1548898456000
1548898473968.7500000000,13,16.3300000000,A01A3A,5,1548898456000
1548898473984.3798828125,13,13.4500000000,A01A3A,5,1548898456000
1548898474000.0000000000,13,9.9500000000,A01A3A,5,1548898456000
1548898474015.6201171875,13,5.9900000000,A01A3A,5,1548898456000
1548898474031.2500000000,13,1.7900000000,A01A3A,5,1548898456000
1548898474046.8798828125,13,-2.4400000000,A01A3A,5,1548898456000
1548898474062.5000000000,13,-6.5900000000,A01A3A,5,1548898456000
1548898474078.1201171875,13,-10.7100000000,A01A3A,5,1548898456000
1548898474093.7500000000,13,-15.0100000000,A01A3A,5,1548898456000
1548898474109.3798828125,13,-19.7700000000,A01A3A,5,1548898456000
1548898474125.0000000000,13,-25.2800000000,A01A3A,5,1548898456000
1548898474140.6201171875,13,-31.6900000000,A01A3A,5,1548898456000
1548898474156.2500000000,13,-38.9300000000,A01A3A,5,1548898456000
1548898474171.8798828125,13,-46.5200000000,A01A3A,5,1548898456000
1548898474187.5000000000,13,-53.6000000000,A01A3A,5,1548898456000
1548898474203.1201171875,13,-58.9100000000,A01A3A,5,1548898456000
1548898474218.7500000000,13,-61.0700000000,A01A3A,5,1548898456000
1548898474234.3798828125,13,-59.0100000000,A01A3A,5,1548898456000
1548898474250.0000000000,13,-52.3700000000,A01A3A,5,1548898456000
1548898474265.6201171875,13,-41.7700000000,A01A3A,5,1548898456000
1548898474281.2500000000,13,-28.6500000000,A01A3A,5,1548898456000
1548898474296.8798828125,13,-14.9500000000,A01A3A,5,1548898456000
1548898474312.5000000000,13,-2.4000000000,A01A3A,5,1548898456000
1548898474328.1201171875,13,7.9400000000,A01A3A,5,1548898456000
1548898474343.7500000000,13,15.8400000000,A01A3A,5,1548898456000
1548898474359.3798828125,13,21.7200000000,A01A3A,5,1548898456000
1548898474375.0000000000,13,26.1900000000,A01A3A,5,1548898456000
1548898474390.6201171875,13,29.7200000000,A01A3A,5,1548898456000
1548898474406.2500000000,13,32.3800000000,A01A3A,5,1548898456000
1548898474421.8798828125,13,34.0300000000,A01A3A,5,1548898456000
1548898474437.5000000000,13,34.4700000000,A01A3A,5,1548898456000
1548898474453.1201171875,13,33.7400000000,A01A3A,5,1548898456000
1548898474468.7500000000,13,32.1900000000,A01A3A,5,1548898456000
1548898474484.3798828125,13,30.3500000000,A01A3A,5,1548898456000
1548898474500.0000000000,13,28.7500000000,A01A3A,5,1548898456000
1548898474515.6201171875,13,27.6900000000,A01A3A,5,1548898456000
1548898474531.2500000000,13,27.1600000000,A01A3A,5,1548898456000
1548898474546.8798828125,13,26.9000000000,A01A3A,5,1548898456000
1548898474562.5000000000,13,26.5700000000,A01A3A,5,1548898456000
1548898474578.1201171875,13,25.9200000000,A01A3A,5,1548898456000
1548898474593.7500000000,13,24.8500000000,A01A3A,5,1548898456000
1548898474609.3798828125,13,23.3600000000,A01A3A,5,1548898456000
1548898474625.0000000000,13,21.4100000000,A01A3A,5,1548898456000
1548898474640.6201171875,13,18.9000000000,A01A3A,5,1548898456000
1548898474656.2500000000,13,15.6900000000,A01A3A,5,1548898456000
1548898474671.8798828125,13,11.6900000000,A01A3A,5,1548898456000
1548898474687.5000000000,13,7.0100000000,A01A3A,5,1548898456000
1548898474703.1201171875,13,1.9600000000,A01A3A,5,1548898456000
1548898474718.7500000000,13,-3.0500000000,A01A3A,5,1548898456000
1548898474734.3798828125,13,-7.7300000000,A01A3A,5,1548898456000
1548898474750.0000000000,13,-11.9800000000,A01A3A,5,1548898456000
1548898474765.6201171875,13,-16.0200000000,A01A3A,5,1548898456000
1548898474781.2500000000,13,-20.2800000000,A01A3A,5,1548898456000
1548898474796.8798828125,13,-25.2900000000,A01A3A,5,1548898456000
1548898474812.5000000000,13,-31.4500000000,A01A3A,5,1548898456000
1548898474828.1201171875,13,-38.8200000000,A01A3A,5,1548898456000
1548898474843.7500000000,13,-46.8900000000,A01A3A,5,1548898456000
1548898474859.3798828125,13,-54.5200000000,A01A3A,5,1548898456000
1548898474875.0000000000,13,-60.0800000000,A01A3A,5,1548898456000
1548898474890.6201171875,13,-61.9200000000,A01A3A,5,1548898456000
1548898474906.2500000000,13,-58.9200000000,A01A3A,5,1548898456000
1548898474921.8798828125,13,-51.0000000000,A01A3A,5,1548898456000
1548898474937.5000000000,13,-39.2100000000,A01A3A,5,1548898456000
1548898474953.1201171875,13,-25.4600000000,A01A3A,5,1548898456000
1548898474968.7500000000,13,-11.8200000000,A01A3A,5,1548898456000
1548898474984.3798828125,13,0.1200000000,A01A3A,5,1548898456000
1548898475000.0000000000,13,9.6400000000,A01A3A,5,1548898456000
1548898475015.6201171875,13,16.8500000000,A01A3A,5,1548898456000
1548898475031.2500000000,13,22.2900000000,A01A3A,5,1548898456000
1548898475046.8798828125,13,26.5100000000,A01A3A,5,1548898456000
1548898475062.5000000000,13,29.7000000000,A01A3A,5,1548898456000
1548898475078.1201171875,13,31.7900000000,A01A3A,5,1548898456000
1548898475093.7500000000,13,32.6200000000,A01A3A,5,1548898456000
1548898475109.3798828125,13,32.2000000000,A01A3A,5,1548898456000
1548898475125.0000000000,13,30.8300000000,A01A3A,5,1548898456000
1548898475140.6201171875,13,29.0300000000,A01A3A,5,1548898456000
1548898475156.2500000000,13,27.3200000000,A01A3A,5,1548898456000
1548898475171.8798828125,13,26.0000000000,A01A3A,5,1548898456000
1548898475187.5000000000,13,25.1300000000,A01A3A,5,1548898456000
1548898475203.1201171875,13,24.6000000000,A01A3A,5,1548898456000
1548898475218.7500000000,13,24.1900000000,A01A3A,5,1548898456000
1548898475234.3798828125,13,23.7500000000,A01A3A,5,1548898456000
1548898475250.0000000000,13,23.1400000000,A01A3A,5,1548898456000
1548898475265.6201171875,13,22.2200000000,A01A3A,5,1548898456000
1548898475281.2500000000,13,20.7700000000,A01A3A,5,1548898456000
1548898475296.8798828125,13,18.5600000000,A01A3A,5,1548898456000
1548898475312.5000000000,13,15.4100000000,A01A3A,5,1548898456000
1548898475328.1201171875,13,11.3200000000,A01A3A,5,1548898456000
1548898475343.7500000000,13,6.5200000000,A01A3A,5,1548898456000
1548898475359.3798828125,13,1.4000000000,A01A3A,5,1548898456000
1548898475375.0000000000,13,-3.6300000000,A01A3A,5,1548898456000
1548898475390.6201171875,13,-8.3100000000,A01A3A,5,1548898456000
1548898475406.2500000000,13,-12.6800000000,A01A3A,5,1548898456000
1548898475421.8798828125,13,-17.0700000000,A01A3A,5,1548898456000
1548898475437.5000000000,13,-21.9900000000,A01A3A,5,1548898456000
1548898475453.1201171875,13,-27.8900000000,A01A3A,5,1548898456000
1548898475468.7500000000,13,-34.8700000000,A01A3A,5,1548898456000
1548898475484.3798828125,13,-42.4400000000,A01A3A,5,1548898456000
1548898475500.0000000000,13,-49.4800000000,A01A3A,5,1548898456000
1548898475515.6201171875,13,-54.4200000000,A01A3A,5,1548898456000
1548898475531.2500000000,13,-55.7500000000,A01A3A,5,1548898456000
1548898475546.8798828125,13,-52.5500000000,A01A3A,5,1548898456000
1548898475562.5000000000,13,-44.8000000000,A01A3A,5,1548898456000
1548898475578.1201171875,13,-33.5500000000,A01A3A,5,1548898456000
1548898475593.7500000000,13,-20.4400000000,A01A3A,5,1548898456000
1548898475609.3798828125,13,-7.3200000000,A01A3A,5,1548898456000
1548898475625.0000000000,13,4.4100000000,A01A3A,5,1548898456000
1548898475640.6201171875,13,13.9800000000,A01A3A,5,1548898456000
1548898475656.2500000000,13,21.2500000000,A01A3A,5,1548898456000
1548898475671.8798828125,13,26.4900000000,A01A3A,5,1548898456000
1548898475687.5000000000,13,30.0000000000,A01A3A,5,1548898456000
1548898475703.1201171875,13,32.0000000000,A01A3A,5,1548898456000
1548898475718.7500000000,13,32.5700000000,A01A3A,5,1548898456000
1548898475734.3798828125,13,31.8900000000,A01A3A,5,1548898456000
1548898475750.0000000000,13,30.2500000000,A01A3A,5,1548898456000
1548898475765.6201171875,13,28.1800000000,A01A3A,5,1548898456000
1548898475781.2500000000,13,26.2000000000,A01A3A,5,1548898456000
1548898475796.8798828125,13,24.7000000000,A01A3A,5,1548898456000
1548898475812.5000000000,13,23.7800000000,A01A3A,5,1548898456000
1548898475828.1201171875,13,23.2600000000,A01A3A,5,1548898456000
1548898475843.7500000000,13,22.8300000000,A01A3A,5,1548898456000
1548898475859.3798828125,13,22.2700000000,A01A3A,5,1548898456000
1548898475875.0000000000,13,21.5200000000,A01A3A,5,1548898456000
1548898475890.6201171875,13,20.6800000000,A01A3A,5,1548898456000
1548898475906.2500000000,13,19.8100000000,A01A3A,5,1548898456000
1548898475921.8798828125,13,18.7300000000,A01A3A,5,1548898456000
1548898475937.5000000000,13,17.0900000000,A01A3A,5,1548898456000
1548898475953.1201171875,13,14.4700000000,A01A3A,5,1548898456000
1548898475968.7500000000,13,10.6600000000,A01A3A,5,1548898456000
1548898475984.3798828125,13,5.8200000000,A01A3A,5,1548898456000
1548898476000.0000000000,13,0.4400000000,A01A3A,5,1548898456000
1548898476015.6201171875,13,-4.9100000000,A01A3A,5,1548898456000
1548898476031.2500000000,13,-9.8500000000,A01A3A,5,1548898456000
1548898476046.8798828125,13,-14.3900000000,A01A3A,5,1548898456000
1548898476062.5000000000,13,-18.8600000000,A01A3A,5,1548898456000
1548898476078.1201171875,13,-23.7700000000,A01A3A,5,1548898456000
1548898476093.7500000000,13,-29.5300000000,A01A3A,5,1548898456000
1548898476109.3798828125,13,-36.3300000000,A01A3A,5,1548898456000
1548898476125.0000000000,13,-43.9500000000,A01A3A,5,1548898456000
1548898476140.6201171875,13,-51.7100000000,A01A3A,5,1548898456000
1548898476156.2500000000,13,-58.5000000000,A01A3A,5,1548898456000
1548898476171.8798828125,13,-62.9300000000,A01A3A,5,1548898456000
1548898476187.5000000000,13,-63.6700000000,A01A3A,5,1548898456000
1548898476203.1201171875,13,-59.8600000000,A01A3A,5,1548898456000
1548898476218.7500000000,13,-51.5300000000,A01A3A,5,1548898456000
1548898476234.3798828125,13,-39.6800000000,A01A3A,5,1548898456000
1548898476250.0000000000,13,-25.9900000000,A01A3A,5,1548898456000
1548898476265.6201171875,13,-12.3100000000,A01A3A,5,1548898456000
1548898476281.2500000000,13,-0.0700000000,A01A3A,5,1548898456000
1548898476296.8798828125,13,9.9400000000,A01A3A,5,1548898456000
1548898476312.5000000000,13,17.7000000000,A01A3A,5,1548898456000
1548898476328.1201171875,13,23.5500000000,A01A3A,5,1548898456000
1548898476343.7500000000,13,27.9600000000,A01A3A,5,1548898456000
1548898476359.3798828125,13,31.2900000000,A01A3A,5,1548898456000
1548898476375.0000000000,13,33.6900000000,A01A3A,5,1548898456000
1548898476390.6201171875,13,35.2000000000,A01A3A,5,1548898456000
1548898476406.2500000000,13,35.8300000000,A01A3A,5,1548898456000
1548898476421.8798828125,13,35.6800000000,A01A3A,5,1548898456000
1548898476437.5000000000,13,34.9200000000,A01A3A,5,1548898456000
1548898476453.1201171875,13,33.7600000000,A01A3A,5,1548898456000
1548898476468.7500000000,13,32.4600000000,A01A3A,5,1548898456000
1548898476484.3798828125,13,31.1700000000,A01A3A,5,1548898456000
1548898476500.0000000000,13,30.0100000000,A01A3A,5,1548898456000
1548898476515.6201171875,13,29.0400000000,A01A3A,5,1548898456000
1548898476531.2500000000,13,28.2300000000,A01A3A,5,1548898456000
1548898476546.8798828125,13,27.5400000000,A01A3A,5,1548898456000
1548898476562.5000000000,13,26.8300000000,A01A3A,5,1548898456000
1548898476578.1201171875,13,25.8600000000,A01A3A,5,1548898456000
1548898476593.7500000000,13,24.2900000000,A01A3A,5,1548898456000
1548898476609.3798828125,13,21.7600000000,A01A3A,5,1548898456000
1548898476625.0000000000,13,18.0600000000,A01A3A,5,1548898456000
1548898476640.6201171875,13,13.2500000000,A01A3A,5,1548898456000
1548898476656.2500000000,13,7.7000000000,A01A3A,5,1548898456000
1548898476671.8798828125,13,1.9800000000,A01A3A,5,1548898456000
1548898476687.5000000000,13,-3.3800000000,A01A3A,5,1548898456000
1548898476703.1201171875,13,-8.1400000000,A01A3A,5,1548898456000
1548898476718.7500000000,13,-12.4100000000,A01A3A,5,1548898456000
1548898476734.3798828125,13,-16.6200000000,A01A3A,5,1548898456000
1548898476750.0000000000,13,-21.3800000000,A01A3A,5,1548898456000
1548898476765.6201171875,13,-27.2200000000,A01A3A,5,1548898456000
1548898476781.2500000000,13,-34.4100000000,A01A3A,5,1548898456000
1548898476796.8798828125,13,-42.7500000000,A01A3A,5,1548898456000
1548898476812.5000000000,13,-51.5000000000,A01A3A,5,1548898456000
1548898476828.1201171875,13,-59.3700000000,A01A3A,5,1548898456000
1548898476843.7500000000,13,-64.7500000000,A01A3A,5,1548898456000
1548898476859.3798828125,13,-66.0900000000,A01A3A,5,1548898456000
1548898476875.0000000000,13,-62.4700000000,A01A3A,5,1548898456000
1548898476890.6201171875,13,-53.9300000000,A01A3A,5,1548898456000
1548898476906.2500000000,13,-41.5800000000,A01A3A,5,1548898456000
1548898476921.8798828125,13,-27.3200000000,A01A3A,5,1548898456000
1548898476937.5000000000,13,-13.1400000000,A01A3A,5,1548898456000
1548898476953.1201171875,13,-0.5900000000,A01A3A,5,1548898456000
1548898476968.7500000000,13,9.7100000000,A01A3A,5,1548898456000
1548898476984.3798828125,13,17.8400000000,A01A3A,5,1548898456000
1548898477000.0000000000,13,24.4000000000,A01A3A,5,1548898456000
1548898477015.6201171875,13,29.8400000000,A01A3A,5,1548898456000
1548898477031.2500000000,13,34.2700000000,A01A3A,5,1548898456000
1548898477046.8798828125,13,37.4800000000,A01A3A,5,1548898456000
1548898477062.5000000000,13,39.1500000000,A01A3A,5,1548898456000
1548898477078.1201171875,13,39.2100000000,A01A3A,5,1548898456000
1548898477093.7500000000,13,37.9800000000,A01A3A,5,1548898456000
1548898477109.3798828125,13,36.1200000000,A01A3A,5,1548898456000
1548898477125.0000000000,13,34.3300000000,A01A3A,5,1548898456000
1548898477140.6201171875,13,33.0800000000,A01A3A,5,1548898456000
1548898477156.2500000000,13,32.4100000000,A01A3A,5,1548898456000
1548898477171.8798828125,13,32.0500000000,A01A3A,5,1548898456000
1548898477187.5000000000,13,31.5900000000,A01A3A,5,1548898456000
1548898477203.1201171875,13,30.7700000000,A01A3A,5,1548898456000
1548898477218.7500000000,13,29.5900000000,A01A3A,5,1548898456000
1548898477234.3798828125,13,28.3100000000,A01A3A,5,1548898456000
1548898477250.0000000000,13,27.1500000000,A01A3A,5,1548898456000
1548898477265.6201171875,13,26.1300000000,A01A3A,5,1548898456000
1548898477281.2500000000,13,24.9000000000,A01A3A,5,1548898456000
1548898477296.8798828125,13,22.8800000000,A01A3A,5,1548898456000
1548898477312.5000000000,13,19.5400000000,A01A3A,5,1548898456000
1548898477328.1201171875,13,14.6900000000,A01A3A,5,1548898456000
1548898477343.7500000000,13,8.6500000000,A01A3A,5,1548898456000
1548898477359.3798828125,13,2.1500000000,A01A3A,5,1548898456000
1548898477375.0000000000,13,-3.9400000000,A01A3A,5,1548898456000
1548898477390.6201171875,13,-9.0400000000,A01A3A,5,1548898456000
1548898477406.2500000000,13,-13.1100000000,A01A3A,5,1548898456000
1548898477421.8798828125,13,-16.6800000000,A01A3A,5,1548898456000
1548898477437.5000000000,13,-20.6100000000,A01A3A,5,1548898456000
1548898477453.1201171875,13,-25.7600000000,A01A3A,5,1548898456000
1548898477468.7500000000,13,-32.5600000000,A01A3A,5,1548898456000
1548898477484.3798828125,13,-40.7900000000,A01A3A,5,1548898456000
1548898477500.0000000000,13,-49.5200000000,A01A3A,5,1548898456000
1548898477515.6201171875,13,-57.2500000000,A01A3A,5,1548898456000
1548898477531.2500000000,13,-62.3200000000,A01A3A,5,1548898456000
1548898477546.8798828125,13,-63.2900000000,A01A3A,5,1548898456000
1548898477562.5000000000,13,-59.4000000000,A01A3A,5,1548898456000
1548898477578.1201171875,13,-50.8500000000,A01A3A,5,1548898456000
1548898477593.7500000000,13,-38.7600000000,A01A3A,5,1548898456000
1548898477609.3798828125,13,-24.8600000000,A01A3A,5,1548898456000
1548898477625.0000000000,13,-11.0000000000,A01A3A,5,1548898456000
1548898477640.6201171875,13,1.3900000000,A01A3A,5,1548898456000
1548898477656.2500000000,13,11.5400000000,A01A3A,5,1548898456000
1548898477671.8798828125,13,19.3700000000,A01A3A,5,1548898456000
1548898477687.5000000000,13,25.2200000000,A01A3A,5,1548898456000
1548898477703.1201171875,13,29.5100000000,A01A3A,5,1548898456000
1548898477718.7500000000,13,32.5000000000,A01A3A,5,1548898456000
1548898477734.3798828125,13,34.2600000000,A01A3A,5,1548898456000
1548898477750.0000000000,13,34.8600000000,A01A3A,5,1548898456000
1548898477765.6201171875,13,34.4300000000,A01A3A,5,1548898456000
1548898477781.2500000000,13,33.3200000000,A01A3A,5,1548898456000
1548898477796.8798828125,13,31.9400000000,A01A3A,5,1548898456000
1548898477812.5000000000,13,30.6600000000,A01A3A,5,1548898456000
1548898477828.1201171875,13,29.6900000000,A01A3A,5,1548898456000
1548898477843.7500000000,13,29.0100000000,A01A3A,5,1548898456000
1548898477859.3798828125,13,28.4700000000,A01A3A,5,1548898456000
1548898477875.0000000000,13,27.9300000000,A01A3A,5,1548898456000
1548898477890.6201171875,13,27.3000000000,A01A3A,5,1548898456000
1548898477906.2500000000,13,26.5500000000,A01A3A,5,1548898456000
1548898477921.8798828125,13,25.6500000000,A01A3A,5,1548898456000
1548898477937.5000000000,13,24.4500000000,A01A3A,5,1548898456000
1548898477953.1201171875,13,22.7300000000,A01A3A,5,1548898456000
1548898477968.7500000000,13,20.2200000000,A01A3A,5,1548898456000
1548898477984.3798828125,13,16.8100000000,A01A3A,5,1548898456000
1548898478000.0000000000,13,12.5300000000,A01A3A,5,1548898456000
1548898478015.6201171875,13,7.6900000000,A01A3A,5,1548898456000
1548898478031.2500000000,13,2.6800000000,A01A3A,5,1548898456000
1548898478046.8798828125,13,-2.1400000000,A01A3A,5,1548898456000
1548898478062.5000000000,13,-6.6000000000,A01A3A,5,1548898456000
1548898478078.1201171875,13,-10.7700000000,A01A3A,5,1548898456000
1548898478093.7500000000,13,-14.9100000000,A01A3A,5,1548898456000
1548898478109.3798828125,13,-19.4300000000,A01A3A,5,1548898456000
1548898478125.0000000000,13,-24.7300000000,A01A3A,5,1548898456000
1548898478140.6201171875,13,-31.0200000000,A01A3A,5,1548898456000
1548898478156.2500000000,13,-38.1200000000,A01A3A,5,1548898456000
1548898478171.8798828125,13,-45.3300000000,A01A3A,5,1548898456000
1548898478187.5000000000,13,-51.4200000000,A01A3A,5,1548898456000
1548898478203.1201171875,13,-54.8200000000,A01A3A,5,1548898456000
1548898478218.7500000000,13,-54.1200000000,A01A3A,5,1548898456000
1548898478234.3798828125,13,-48.6200000000,A01A3A,5,1548898456000
1548898478250.0000000000,13,-38.6400000000,A01A3A,5,1548898456000
1548898478265.6201171875,13,-25.5900000000,A01A3A,5,1548898456000
1548898478281.2500000000,13,-11.5000000000,A01A3A,5,1548898456000
1548898478296.8798828125,13,1.6000000000,A01A3A,5,1548898456000
1548898478312.5000000000,13,12.2700000000,A01A3A,5,1548898456000
1548898478328.1201171875,13,19.9800000000,A01A3A,5,1548898456000
1548898478343.7500000000,13,24.9900000000,A01A3A,5,1548898456000
1548898478359.3798828125,13,27.9900000000,A01A3A,5,1548898456000
1548898478375.0000000000,13,29.6000000000,A01A3A,5,1548898456000
1548898478390.6201171875,13,30.2100000000,A01A3A,5,1548898456000
1548898478406.2500000000,13,29.9200000000,A01A3A,5,1548898456000
1548898478421.8798828125,13,28.7200000000,A01A3A,5,1548898456000
1548898478437.5000000000,13,26.7600000000,A01A3A,5,1548898456000
1548898478453.1201171875,13,24.4100000000,A01A3A,5,1548898456000
1548898478468.7500000000,13,22.2000000000,A01A3A,5,1548898456000
1548898478484.3798828125,13,20.6300000000,A01A3A,5,1548898456000
1548898478500.0000000000,13,19.9900000000,A01A3A,5,1548898456000
1548898478515.6201171875,13,20.1900000000,A01A3A,5,1548898456000
1548898478531.2500000000,13,20.8500000000,A01A3A,5,1548898456000
1548898478546.8798828125,13,21.4300000000,A01A3A,5,1548898456000
1548898478562.5000000000,13,21.4600000000,A01A3A,5,1548898456000
1548898478578.1201171875,13,20.6000000000,A01A3A,5,1548898456000
1548898478593.7500000000,13,18.7600000000,A01A3A,5,1548898456000
1548898478609.3798828125,13,16.0400000000,A01A3A,5,1548898456000
1548898478625.0000000000,13,12.6300000000,A01A3A,5,1548898456000
1548898478640.6201171875,13,8.7500000000,A01A3A,5,1548898456000
1548898478656.2500000000,13,4.6200000000,A01A3A,5,1548898456000
1548898478671.8798828125,13,0.3900000000,A01A3A,5,1548898456000
1548898478687.5000000000,13,-3.8100000000,A01A3A,5,1548898456000
1548898478703.1201171875,13,-7.9600000000,A01A3A,5,1548898456000
1548898478718.7500000000,13,-12.1100000000,A01A3A,5,1548898456000
1548898478734.3798828125,13,-16.4500000000,A01A3A,5,1548898456000
1548898478750.0000000000,13,-21.2400000000,A01A3A,5,1548898456000
1548898478765.6201171875,13,-26.7900000000,A01A3A,5,1548898456000
1548898478781.2500000000,13,-33.3000000000,A01A3A,5,1548898456000
1548898478796.8798828125,13,-40.6400000000,A01A3A,5,1548898456000
1548898478812.5000000000,13,-48.2000000000,A01A3A,5,1548898456000
1548898478828.1201171875,13,-54.7900000000,A01A3A,5,1548898456000
1548898478843.7500000000,13,-58.8400000000,A01A3A,5,1548898456000
1548898478859.3798828125,13,-58.7600000000,A01A3A,5,1548898456000
1548898478875.0000000000,13,-53.6500000000,A01A3A,5,1548898456000
1548898478890.6201171875,13,-43.6300000000,A01A3A,5,1548898456000
1548898478906.2500000000,13,-30.0500000000,A01A3A,5,1548898456000
1548898478921.8798828125,13,-15.0600000000,A01A3A,5,1548898456000
1548898478937.5000000000,13,-0.9500000000,A01A3A,5,1548898456000
1548898478953.1201171875,13,10.6300000000,A01A3A,5,1548898456000
1548898478968.7500000000,13,19.0700000000,A01A3A,5,1548898456000
1548898478984.3798828125,13,24.7200000000,A01A3A,5,1548898456000
1548898479000.0000000000,13,28.4900000000,A01A3A,5,1548898456000
1548898479015.6201171875,13,31.1700000000,A01A3A,5,1548898456000
1548898479031.2500000000,13,33.1500000000,A01A3A,5,1548898456000
1548898479046.8798828125,13,34.3100000000,A01A3A,5,1548898456000
1548898479062.5000000000,13,34.4100000000,A01A3A,5,1548898456000
1548898479078.1201171875,13,33.3400000000,A01A3A,5,1548898456000
1548898479093.7500000000,13,31.4000000000,A01A3A,5,1548898456000
1548898479109.3798828125,13,29.1300000000,A01A3A,5,1548898456000
1548898479125.0000000000,13,27.1200000000,A01A3A,5,1548898456000
1548898479140.6201171875,13,25.6500000000,A01A3A,5,1548898456000
1548898479156.2500000000,13,24.6600000000,A01A3A,5,1548898456000
1548898479171.8798828125,13,23.8700000000,A01A3A,5,1548898456000
1548898479187.5000000000,13,23.0100000000,A01A3A,5,1548898456000
1548898479203.1201171875,13,21.9500000000,A01A3A,5,1548898456000
1548898479218.7500000000,13,20.7200000000,A01A3A,5,1548898456000
1548898479234.3798828125,13,19.4100000000,A01A3A,5,1548898456000
1548898479250.0000000000,13,17.9400000000,A01A3A,5,1548898456000
1548898479265.6201171875,13,16.0400000000,A01A3A,5,1548898456000
1548898479281.2500000000,13,13.3300000000,A01A3A,5,1548898456000
1548898479296.8798828125,13,9.5400000000,A01A3A,5,1548898456000
1548898479312.5000000000,13,4.7000000000,A01A3A,5,1548898456000
1548898479328.1201171875,13,-0.8700000000,A01A3A,5,1548898456000
1548898479343.7500000000,13,-6.5900000000,A01A3A,5,1548898456000
1548898479359.3798828125,13,-11.9200000000,A01A3A,5,1548898456000
1548898479375.0000000000,13,-16.5800000000,A01A3A,5,1548898456000
1548898479390.6201171875,13,-20.6600000000,A01A3A,5,1548898456000
1548898479406.2500000000,13,-24.6600000000,A01A3A,5,1548898456000
1548898479421.8798828125,13,-29.2600000000,A01A3A,5,1548898456000
1548898479437.5000000000,13,-35.0700000000,A01A3A,5,1548898456000
1548898479453.1201171875,13,-42.2600000000,A01A3A,5,1548898456000
1548898479468.7500000000,13,-50.2800000000,A01A3A,5,1548898456000
1548898479484.3798828125,13,-57.8200000000,A01A3A,5,1548898456000
1548898479500.0000000000,13,-63.0600000000,A01A3A,5,1548898456000
1548898479515.6201171875,13,-64.2300000000,A01A3A,5,1548898456000
1548898479531.2500000000,13,-60.2800000000,A01A3A,5,1548898456000
1548898479546.8798828125,13,-51.3400000000,A01A3A,5,1548898456000
1548898479562.5000000000,13,-38.7400000000,A01A3A,5,1548898456000
1548898479578.1201171875,13,-24.5500000000,A01A3A,5,1548898456000
1548898479593.7500000000,13,-10.8600000000,A01A3A,5,1548898456000
1548898479609.3798828125,13,0.8900000000,A01A3A,5,1548898456000
1548898479625.0000000000,13,10.2500000000,A01A3A,5,1548898456000
1548898479640.6201171875,13,17.5000000000,A01A3A,5,1548898456000
1548898479656.2500000000,13,23.2500000000,A01A3A,5,1548898456000
1548898479671.8798828125,13,27.9200000000,A01A3A,5,1548898456000
1548898479687.5000000000,13,31.5400000000,A01A3A,5,1548898456000
1548898479703.1201171875,13,33.8800000000,A01A3A,5,1548898456000
1548898479718.7500000000,13,34.7400000000,A01A3A,5,1548898456000
1548898479734.3798828125,13,34.2600000000,A01A3A,5,1548898456000
1548898479750.0000000000,13,32.9000000000,A01A3A,5,1548898456000
1548898479765.6201171875,13,31.2800000000,A01A3A,5,1548898456000
1548898479781.2500000000,13,29.9200000000,A01A3A,5,1548898456000
1548898479796.8798828125,13,28.9800000000,A01A3A,5,1548898456000
1548898479812.5000000000,13,28.3200000000,A01A3A,5,1548898456000
1548898479828.1201171875,13,27.6600000000,A01A3A,5,1548898456000
1548898479843.7500000000,13,26.8000000000,A01A3A,5,1548898456000
1548898479859.3798828125,13,25.7600000000,A01A3A,5,1548898456000
1548898479875.0000000000,13,24.7600000000,A01A3A,5,1548898456000
1548898479890.6201171875,13,23.9500000000,A01A3A,5,1548898456000
1548898479906.2500000000,13,23.2800000000,A01A3A,5,1548898456000
1548898479921.8798828125,13,22.3800000000,A01A3A,5,1548898456000
1548898479937.5000000000,13,20.6900000000,A01A3A,5,1548898456000
1548898479953.1201171875,13,17.7200000000,A01A3A,5,1548898456000
1548898479968.7500000000,13,13.2900000000,A01A3A,5,1548898456000
1548898479984.3798828125,13,7.6900000000,A01A3A,5,1548898456000
1548898480000.0000000000,13,1.5800000000,A01A3A,5,1548898456000
1548898480015.6201171875,13,-4.2900000000,A01A3A,5,1548898456000
1548898480031.2500000000,13,-9.4000000000,A01A3A,5,1548898456000
1548898480046.8798828125,13,-13.6700000000,A01A3A,5,1548898456000
1548898480062.5000000000,13,-17.5300000000,A01A3A,5,1548898456000
1548898480078.1201171875,13,-21.6800000000,A01A3A,5,1548898456000
1548898480093.7500000000,13,-26.8200000000,A01A3A,5,1548898456000
1548898480109.3798828125,13,-33.3700000000,A01A3A,5,1548898456000
1548898480125.0000000000,13,-41.2200000000,A01A3A,5,1548898456000
1548898480140.6201171875,13,-49.6500000000,A01A3A,5,1548898456000
1548898480156.2500000000,13,-57.3900000000,A01A3A,5,1548898456000
1548898480171.8798828125,13,-62.9000000000,A01A3A,5,1548898456000
1548898480187.5000000000,13,-64.6500000000,A01A3A,5,1548898456000
1548898480203.1201171875,13,-61.6500000000,A01A3A,5,1548898456000
1548898480218.7500000000,13,-53.7400000000,A01A3A,5,1548898456000
1548898480234.3798828125,13,-41.7700000000,A01A3A,5,1548898456000
1548898480250.0000000000,13,-27.4400000000,A01A3A,5,1548898456000
1548898480265.6201171875,13,-12.7400000000,A01A3A,5,1548898456000
1548898480281.2500000000,13,0.5300000000,A01A3A,5,1548898456000
1548898480296.8798828125,13,11.3400000000,A01A3A,5,1548898456000
1548898480312.5000000000,13,19.4700000000,A01A3A,5,1548898456000
1548898480328.1201171875,13,25.3200000000,A01A3A,5,1548898456000
1548898480343.7500000000,13,29.5300000000,A01A3A,5,1548898456000
1548898480359.3798828125,13,32.5500000000,A01A3A,5,1548898456000
1548898480375.0000000000,13,34.5500000000,A01A3A,5,1548898456000
1548898480390.6201171875,13,35.4900000000,A01A3A,5,1548898456000
1548898480406.2500000000,13,35.3600000000,A01A3A,5,1548898456000
1548898480421.8798828125,13,34.3600000000,A01A3A,5,1548898456000
1548898480437.5000000000,13,32.8700000000,A01A3A,5,1548898456000
1548898480453.1201171875,13,31.3900000000,A01A3A,5,1548898456000
1548898480468.7500000000,13,30.2600000000,A01A3A,5,1548898456000
1548898480484.3798828125,13,29.5500000000,A01A3A,5,1548898456000
1548898480500.0000000000,13,29.1000000000,A01A3A,5,1548898456000
1548898480515.6201171875,13,28.6300000000,A01A3A,5,1548898456000
1548898480531.2500000000,13,27.8900000000,A01A3A,5,1548898456000
1548898480546.8798828125,13,26.8400000000,A01A3A,5,1548898456000
1548898480562.5000000000,13,25.5900000000,A01A3A,5,1548898456000
1548898480578.1201171875,13,24.3100000000,A01A3A,5,1548898456000
1548898480593.7500000000,13,23.0700000000,A01A3A,5,1548898456000
1548898480609.3798828125,13,21.6700000000,A01A3A,5,1548898456000
1548898480625.0000000000,13,19.7400000000,A01A3A,5,1548898456000
1548898480640.6201171875,13,16.8000000000,A01A3A,5,1548898456000
1548898480656.2500000000,13,12.5600000000,A01A3A,5,1548898456000
1548898480671.8798828125,13,7.0900000000,A01A3A,5,1548898456000
1548898480687.5000000000,13,0.8900000000,A01A3A,5,1548898456000
1548898480703.1201171875,13,-5.3000000000,A01A3A,5,1548898456000
1548898480718.7500000000,13,-10.7800000000,A01A3A,5,1548898456000
1548898480734.3798828125,13,-15.1600000000,A01A3A,5,1548898456000
1548898480750.0000000000,13,-18.6400000000,A01A3A,5,1548898456000
1548898480765.6201171875,13,-21.8500000000,A01A3A,5,1548898456000
1548898480781.2500000000,13,-25.6500000000,A01A3A,5,1548898456000
1548898480796.8798828125,13,-30.7900000000,A01A3A,5,1548898456000
1548898480812.5000000000,13,-37.6000000000,A01A3A,5,1548898456000
1548898480828.1201171875,13,-45.7300000000,A01A3A,5,1548898456000
1548898480843.7500000000,13,-54.1200000000,A01A3A,5,1548898456000
1548898480859.3798828125,13,-61.2200000000,A01A3A,5,1548898456000
1548898480875.0000000000,13,-65.2900000000,A01A3A,5,1548898456000
1548898480890.6201171875,13,-64.9700000000,A01A3A,5,1548898456000
1548898480906.2500000000,13,-59.6900000000,A01A3A,5,1548898456000
1548898480921.8798828125,13,-49.8800000000,A01A3A,5,1548898456000
1548898480937.5000000000,13,-36.9100000000,A01A3A,5,1548898456000
1548898480953.1201171875,13,-22.6100000000,A01A3A,5,1548898456000
1548898480968.7500000000,13,-8.7900000000,A01A3A,5,1548898456000
1548898480984.3798828125,13,3.2600000000,A01A3A,5,1548898456000
1548898481000.0000000000,13,12.9300000000,A01A3A,5,1548898456000
1548898481015.6201171875,13,20.2300000000,A01A3A,5,1548898456000
1548898481031.2500000000,13,25.5000000000,A01A3A,5,1548898456000
1548898481046.8798828125,13,29.1200000000,A01A3A,5,1548898456000
1548898481062.5000000000,13,31.3700000000,A01A3A,5,1548898456000
1548898481078.1201171875,13,32.4000000000,A01A3A,5,1548898456000
1548898481093.7500000000,13,32.3300000000,A01A3A,5,1548898456000
1548898481109.3798828125,13,31.3700000000,A01A3A,5,1548898456000
1548898481125.0000000000,13,29.8800000000,A01A3A,5,1548898456000
1548898481140.6201171875,13,28.2600000000,A01A3A,5,1548898456000
1548898481156.2500000000,13,26.8400000000,A01A3A,5,1548898456000
1548898481171.8798828125,13,25.7500000000,A01A3A,5,1548898456000
1548898481187.5000000000,13,24.9200000000,A01A3A,5,1548898456000
1548898481203.1201171875,13,24.1700000000,A01A3A,5,1548898456000
1548898481218.7500000000,13,23.3000000000,A01A3A,5,1548898456000
1548898481234.3798828125,13,22.2200000000,A01A3A,5,1548898456000
1548898481250.0000000000,13,20.9700000000,A01A3A,5,1548898456000
1548898481265.6201171875,13,19.6100000000,A01A3A,5,1548898456000
1548898481281.2500000000,13,18.0800000000,A01A3A,5,1548898456000
1548898481296.8798828125,13,16.2300000000,A01A3A,5,1548898456000
1548898481312.5000000000,13,13.8000000000,A01A3A,5,1548898456000
1548898481328.1201171875,13,10.6400000000,A01A3A,5,1548898456000
1548898481343.7500000000,13,6.7800000000,A01A3A,5,1548898456000
1548898481359.3798828125,13,2.4800000000,A01A3A,5,1548898456000
1548898481375.0000000000,13,-1.9400000000,A01A3A,5,1548898456000
1548898481390.6201171875,13,-6.1900000000,A01A3A,5,1548898456000
1548898481406.2500000000,13,-10.2500000000,A01A3A,5,1548898456000
1548898481421.8798828125,13,-14.3400000000,A01A3A,5,1548898456000
1548898481437.5000000000,13,-18.9000000000,A01A3A,5,1548898456000
1548898481453.1201171875,13,-24.4000000000,A01A3A,5,1548898456000
1548898481468.7500000000,13,-31.0400000000,A01A3A,5,1548898456000
1548898481484.3798828125,13,-38.5400000000,A01A3A,5,1548898456000
1548898481500.0000000000,13,-45.9800000000,A01A3A,5,1548898456000
1548898481515.6201171875,13,-51.9200000000,A01A3A,5,1548898456000
1548898481531.2500000000,13,-54.7800000000,A01A3A,5,1548898456000
1548898481546.8798828125,13,-53.3100000000,A01A3A,5,1548898456000
1548898481562.5000000000,13,-47.1000000000,A01A3A,5,1548898456000
1548898481578.1201171875,13,-36.8000000000,A01A3A,5,1548898456000
1548898481593.7500000000,13,-23.9100000000,A01A3A,5,1548898456000
1548898481609.3798828125,13,-10.3400000000,A01A3A,5,1548898456000
1548898481625.0000000000,13,2.1800000000,A01A3A,5,1548898456000
1548898481640.6201171875,13,12.5200000000,A01A3A,5,1548898456000
1548898481656.2500000000,13,20.2400000000,A01A3A,5,1548898456000
1548898481671.8798828125,13,25.4600000000,A01A3A,5,1548898456000
1548898481687.5000000000,13,28.5300000000,A01A3A,5,1548898456000
1548898481703.1201171875,13,29.8100000000,A01A3A,5,1548898456000
1548898481718.7500000000,13,29.5800000000,A01A3A,5,1548898456000
1548898481734.3798828125,13,28.1100000000,A01A3A,5,1548898456000
1548898481750.0000000000,13,25.7400000000,A01A3A,5,1548898456000
1548898481765.6201171875,13,22.9900000000,A01A3A,5,1548898456000
1548898481781.2500000000,13,20.4000000000,A01A3A,5,1548898456000
1548898481796.8798828125,13,18.4800000000,A01A3A,5,1548898456000
1548898481812.5000000000,13,17.4500000000,A01A3A,5,1548898456000
1548898481828.1201171875,13,17.2900000000,A01A3A,5,1548898456000
1548898481843.7500000000,13,17.6900000000,A01A3A,5,1548898456000
1548898481859.3798828125,13,18.2300000000,A01A3A,5,1548898456000
1548898481875.0000000000,13,18.5300000000,A01A3A,5,1548898456000
1548898481890.6201171875,13,18.3200000000,A01A3A,5,1548898456000
1548898481906.2500000000,13,17.4500000000,A01A3A,5,1548898456000
1548898481921.8798828125,13,15.8900000000,A01A3A,5,1548898456000
1548898481937.5000000000,13,13.5900000000,A01A3A,5,1548898456000
1548898481953.1201171875,13,10.5600000000,A01A3A,5,1548898456000
1548898481968.7500000000,13,6.8600000000,A01A3A,5,1548898456000
1548898481984.3798828125,13,2.7000000000,A01A3A,5,1548898456000
1548898482000.0000000000,13,-1.6400000000,A01A3A,5,1548898456000
1548898482015.6201171875,13,-5.9000000000,A01A3A,5,1548898456000
1548898482031.2500000000,13,-9.9900000000,A01A3A,5,1548898456000
1548898482046.8798828125,13,-14.0400000000,A01A3A,5,1548898456000
1548898482062.5000000000,13,-18.4200000000,A01A3A,5,1548898456000
1548898482078.1201171875,13,-23.5400000000,A01A3A,5,1548898456000
1548898482093.7500000000,13,-29.7200000000,A01A3A,5,1548898456000
1548898482109.3798828125,13,-36.9200000000,A01A3A,5,1548898456000
1548898482125.0000000000,13,-44.6300000000,A01A3A,5,1548898456000
1548898482140.6201171875,13,-51.8700000000,A01A3A,5,1548898456000
1548898482156.2500000000,13,-57.3000000000,A01A3A,5,1548898456000
1548898482171.8798828125,13,-59.5200000000,A01A3A,5,1548898456000
1548898482187.5000000000,13,-57.4600000000,A01A3A,5,1548898456000
1548898482203.1201171875,13,-50.7700000000,A01A3A,5,1548898456000
1548898482218.7500000000,13,-40.0600000000,A01A3A,5,1548898456000
1548898482234.3798828125,13,-26.7100000000,A01A3A,5,1548898456000
1548898482250.0000000000,13,-12.6400000000,A01A3A,5,1548898456000
1548898482265.6201171875,13,0.3900000000,A01A3A,5,1548898456000
1548898482281.2500000000,13,11.1200000000,A01A3A,5,1548898456000
1548898482296.8798828125,13,19.0800000000,A01A3A,5,1548898456000
1548898482312.5000000000,13,24.4700000000,A01A3A,5,1548898456000
1548898482328.1201171875,13,27.8300000000,A01A3A,5,1548898456000
1548898482343.7500000000,13,29.6600000000,A01A3A,5,1548898456000
1548898482359.3798828125,13,30.2900000000,A01A3A,5,1548898456000
1548898482375.0000000000,13,29.8800000000,A01A3A,5,1548898456000
1548898482390.6201171875,13,28.6000000000,A01A3A,5,1548898456000
1548898482406.2500000000,13,26.7200000000,A01A3A,5,1548898456000
1548898482421.8798828125,13,24.6800000000,A01A3A,5,1548898456000
1548898482437.5000000000,13,22.9300000000,A01A3A,5,1548898456000
1548898482453.1201171875,13,21.7400000000,A01A3A,5,1548898456000
1548898482468.7500000000,13,21.1400000000,A01A3A,5,1548898456000
1548898482484.3798828125,13,20.9500000000,A01A3A,5,1548898456000
1548898482500.0000000000,13,20.9300000000,A01A3A,5,1548898456000
1548898482515.6201171875,13,20.8600000000,A01A3A,5,1548898456000
1548898482531.2500000000,13,20.6300000000,A01A3A,5,1548898456000
1548898482546.8798828125,13,20.1700000000,A01A3A,5,1548898456000
1548898482562.5000000000,13,19.3400000000,A01A3A,5,1548898456000
1548898482578.1201171875,13,17.9000000000,A01A3A,5,1548898456000
1548898482593.7500000000,13,15.5700000000,A01A3A,5,1548898456000
1548898482609.3798828125,13,12.1600000000,A01A3A,5,1548898456000
1548898482625.0000000000,13,7.7100000000,A01A3A,5,1548898456000
1548898482640.6201171875,13,2.5400000000,A01A3A,5,1548898456000
1548898482656.2500000000,13,-2.9000000000,A01A3A,5,1548898456000
1548898482671.8798828125,13,-8.1800000000,A01A3A,5,1548898456000
1548898482687.5000000000,13,-13.0700000000,A01A3A,5,1548898456000
1548898482703.1201171875,13,-17.5800000000,A01A3A,5,1548898456000
1548898482718.7500000000,13,-22.0200000000,A01A3A,5,1548898456000
1548898482734.3798828125,13,-26.8000000000,A01A3A,5,1548898456000
1548898482750.0000000000,13,-32.3800000000,A01A3A,5,1548898456000
1548898482765.6201171875,13,-39.0500000000,A01A3A,5,1548898456000
1548898482781.2500000000,13,-46.7800000000,A01A3A,5,1548898456000
1548898482796.8798828125,13,-54.9700000000,A01A3A,5,1548898456000
1548898482812.5000000000,13,-62.4500000000,A01A3A,5,1548898456000
1548898482828.1201171875,13,-67.5600000000,A01A3A,5,1548898456000
1548898482843.7500000000,13,-68.6900000000,A01A3A,5,1548898456000
1548898482859.3798828125,13,-64.7500000000,A01A3A,5,1548898456000
1548898482875.0000000000,13,-55.6900000000,A01A3A,5,1548898456000
1548898482890.6201171875,13,-42.6600000000,A01A3A,5,1548898456000
1548898482906.2500000000,13,-27.6700000000,A01A3A,5,1548898456000
1548898482921.8798828125,13,-12.9000000000,A01A3A,5,1548898456000
1548898482937.5000000000,13,-0.0500000000,A01A3A,5,1548898456000
1548898482953.1201171875,13,10.0900000000,A01A3A,5,1548898456000
1548898482968.7500000000,13,17.6600000000,A01A3A,5,1548898456000
1548898482984.3798828125,13,23.3100000000,A01A3A,5,1548898456000
1548898483000.0000000000,13,27.7100000000,A01A3A,5,1548898456000
1548898483015.6201171875,13,31.1800000000,A01A3A,5,1548898456000
1548898483031.2500000000,13,33.6800000000,A01A3A,5,1548898456000
1548898483046.8798828125,13,34.9800000000,A01A3A,5,1548898456000
1548898483062.5000000000,13,34.9900000000,A01A3A,5,1548898456000
1548898483078.1201171875,13,33.9000000000,A01A3A,5,1548898456000
1548898483093.7500000000,13,32.1700000000,A01A3A,5,1548898456000
1548898483109.3798828125,13,30.3200000000,A01A3A,5,1548898456000
1548898483125.0000000000,13,28.7700000000,A01A3A,5,1548898456000
1548898483140.6201171875,13,27.5800000000,A01A3A,5,1548898456000
1548898483156.2500000000,13,26.6300000000,A01A3A,5,1548898456000
1548898483171.8798828125,13,25.6600000000,A01A3A,5,1548898456000
1548898483187.5000000000,13,24.5300000000,A01A3A,5,1548898456000
1548898483203.1201171875,13,23.2700000000,A01A3A,5,1548898456000
1548898483218.7500000000,13,22.0000000000,A01A3A,5,1548898456000
1548898483234.3798828125,13,20.8400000000,A01A3A,5,1548898456000
1548898483250.0000000000,13,19.6700000000,A01A3A,5,1548898456000
1548898483265.6201171875,13,18.1500000000,A01A3A,5,1548898456000
1548898483281.2500000000,13,15.7700000000,A01A3A,5,1548898456000
1548898483296.8798828125,13,12.1800000000,A01A3A,5,1548898456000
1548898483312.5000000000,13,7.3000000000,A01A3A,5,1548898456000
1548898483328.1201171875,13,1.5300000000,A01A3A,5,1548898456000
1548898483343.7500000000,13,-4.4900000000,A01A3A,5,1548898456000
1548898483359.3798828125,13,-10.0200000000,A01A3A,5,1548898456000
1548898483375.0000000000,13,-14.6800000000,A01A3A,5,1548898456000
1548898483390.6201171875,13,-18.5600000000,A01A3A,5,1548898456000
1548898483406.2500000000,13,-22.2400000000,A01A3A,5,1548898456000
1548898483421.8798828125,13,-26.5900000000,A01A3A,5,1548898456000
1548898483437.5000000000,13,-32.3900000000,A01A3A,5,1548898456000
1548898483453.1201171875,13,-39.9600000000,A01A3A,5,1548898456000
1548898483468.7500000000,13,-48.9000000000,A01A3A,5,1548898456000
1548898483484.3798828125,13,-57.9700000000,A01A3A,5,1548898456000
1548898483500.0000000000,13,-65.3500000000,A01A3A,5,1548898456000
1548898483515.6201171875,13,-69.0900000000,A01A3A,5,1548898456000
1548898483531.2500000000,13,-67.7700000000,A01A3A,5,1548898456000
1548898483546.8798828125,13,-60.9700000000,A01A3A,5,1548898456000
1548898483562.5000000000,13,-49.5600000000,A01A3A,5,1548898456000
1548898483578.1201171875,13,-35.3500000000,A01A3A,5,1548898456000
1548898483593.7500000000,13,-20.5100000000,A01A3A,5,1548898456000
1548898483609.3798828125,13,-6.8500000000,A01A3A,5,1548898456000
1548898483625.0000000000,13,4.6100000000,A01A3A,5,1548898456000
1548898483640.6201171875,13,13.7200000000,A01A3A,5,1548898456000
1548898483656.2500000000,13,20.8000000000,A01A3A,5,1548898456000
1548898483671.8798828125,13,26.2700000000,A01A3A,5,1548898456000
1548898483687.5000000000,13,30.3200000000,A01A3A,5,1548898456000
1548898483703.1201171875,13,32.9700000000,A01A3A,5,1548898456000
1548898483718.7500000000,13,34.2400000000,A01A3A,5,1548898456000
1548898483734.3798828125,13,34.3900000000,A01A3A,5,1548898456000
1548898483750.0000000000,13,33.9100000000,A01A3A,5,1548898456000
1548898483765.6201171875,13,33.3400000000,A01A3A,5,1548898456000
1548898483781.2500000000,13,33.0100000000,A01A3A,5,1548898456000
1548898483796.8798828125,13,32.9100000000,A01A3A,5,1548898456000
1548898483812.5000000000,13,32.7600000000,A01A3A,5,1548898456000
1548898483828.1201171875,13,32.2400000000,A01A3A,5,1548898456000
1548898483843.7500000000,13,31.2300000000,A01A3A,5,1548898456000
1548898483859.3798828125,13,29.9000000000,A01A3A,5,1548898456000
1548898483875.0000000000,13,28.6500000000,A01A3A,5,1548898456000
1548898483890.6201171875,13,27.7900000000,A01A3A,5,1548898456000
1548898483906.2500000000,13,27.3900000000,A01A3A,5,1548898456000
1548898483921.8798828125,13,27.0600000000,A01A3A,5,1548898456000
1548898483937.5000000000,13,26.1700000000,A01A3A,5,1548898456000
1548898483953.1201171875,13,24.0400000000,A01A3A,5,1548898456000
1548898483968.7500000000,13,20.3400000000,A01A3A,5,1548898456000
1548898483984.3798828125,13,15.1700000000,A01A3A,5,1548898456000
1548898484000.0000000000,13,9.0200000000,A01A3A,5,1548898456000
1548898484015.6201171875,13,2.5900000000,A01A3A,5,1548898456000
1548898484031.2500000000,13,-3.5800000000,A01A3A,5,1548898456000
1548898484046.8798828125,13,-9.1900000000,A01A3A,5,1548898456000
1548898484062.5000000000,13,-14.3100000000,A01A3A,5,1548898456000
1548898484078.1201171875,13,-19.2100000000,A01A3A,5,1548898456000
1548898484093.7500000000,13,-24.2800000000,A01A3A,5,1548898456000
1548898484109.3798828125,13,-29.9200000000,A01A3A,5,1548898456000
1548898484125.0000000000,13,-36.4400000000,A01A3A,5,1548898456000
1548898484140.6201171875,13,-43.9600000000,A01A3A,5,1548898456000
1548898484156.2500000000,13,-52.1900000000,A01A3A,5,1548898456000
1548898484171.8798828125,13,-60.2600000000,A01A3A,5,1548898456000
1548898484187.5000000000,13,-66.7100000000,A01A3A,5,1548898456000
1548898484203.1201171875,13,-69.7600000000,A01A3A,5,1548898456000
1548898484218.7500000000,13,-67.9000000000,A01A3A,5,1548898456000
1548898484234.3798828125,13,-60.5000000000,A01A3A,5,1548898456000
1548898484250.0000000000,13,-48.2000000000,A01A3A,5,1548898456000
1548898484265.6201171875,13,-32.8300000000,A01A3A,5,1548898456000
1548898484281.2500000000,13,-16.8400000000,A01A3A,5,1548898456000
1548898484296.8798828125,13,-2.4200000000,A01A3A,5,1548898456000
1548898484312.5000000000,13,9.1100000000,A01A3A,5,1548898456000
1548898484328.1201171875,13,17.5100000000,A01A3A,5,1548898456000
1548898484343.7500000000,13,23.3900000000,A01A3A,5,1548898456000
1548898484359.3798828125,13,27.6100000000,A01A3A,5,1548898456000
1548898484375.0000000000,13,30.7700000000,A01A3A,5,1548898456000
1548898484390.6201171875,13,33.0500000000,A01A3A,5,1548898456000
1548898484406.2500000000,13,34.2800000000,A01A3A,5,1548898456000
1548898484421.8798828125,13,34.3300000000,A01A3A,5,1548898456000
1548898484437.5000000000,13,33.3500000000,A01A3A,5,1548898456000
1548898484453.1201171875,13,31.8000000000,A01A3A,5,1548898456000
1548898484468.7500000000,13,30.3200000000,A01A3A,5,1548898456000
1548898484484.3798828125,13,29.4000000000,A01A3A,5,1548898456000
1548898484500.0000000000,13,29.1600000000,A01A3A,5,1548898456000
1548898484515.6201171875,13,29.3700000000,A01A3A,5,1548898456000
1548898484531.2500000000,13,29.5900000000,A01A3A,5,1548898456000
1548898484546.8798828125,13,29.4100000000,A01A3A,5,1548898456000
1548898484562.5000000000,13,28.6400000000,A01A3A,5,1548898456000
1548898484578.1201171875,13,27.3100000000,A01A3A,5,1548898456000
1548898484593.7500000000,13,25.5700000000,A01A3A,5,1548898456000
1548898484609.3798828125,13,23.5400000000,A01A3A,5,1548898456000
1548898484625.0000000000,13,21.1400000000,A01A3A,5,1548898456000
1548898484640.6201171875,13,18.1400000000,A01A3A,5,1548898456000
1548898484656.2500000000,13,14.2900000000,A01A3A,5,1548898456000
1548898484671.8798828125,13,9.5400000000,A01A3A,5,1548898456000
1548898484687.5000000000,13,4.0900000000,A01A3A,5,1548898456000
1548898484703.1201171875,13,-1.5800000000,A01A3A,5,1548898456000
1548898484718.7500000000,13,-7.0200000000,A01A3A,5,1548898456000
