timestamp,pid,value,device_serial,device_number,entry_time
1553835054000.0000000000,30,0E-10,A01A3A,5,1553835054000
1553835054015.6201171875,30,0E-10,A01A3A,5,1553835054000
1553835054031.2500000000,30,0E-10,A01A3A,5,1553835054000
1553835054046.8798828125,30,0E-10,A01A3A,5,1553835054000
1553835054062.5000000000,30,0E-10,A01A3A,5,1553835054000
1553835054078.1201171875,30,0E-10,A01A3A,5,1553835054000
1553835054093.7500000000,30,0E-10,A01A3A,5,1553835054000
1553835054109.3798828125,30,0E-10,A01A3A,5,1553835054000
1553835054125.0000000000,30,0E-10,A01A3A,5,1553835054000
1553835054140.6201171875,30,0E-10,A01A3A,5,1553835054000
1553835054156.2500000000,30,0E-10,A01A3A,5,1553835054000
1553835054171.8798828125,30,0.0100000000,A01A3A,5,1553835054000
1553835054187.5000000000,30,0.0100000000,A01A3A,5,1553835054000
1553835054203.1201171875,30,0E-10,A01A3A,5,1553835054000
1553835054218.7500000000,30,-0.0300000000,A01A3A,5,1553835054000
1553835054234.3798828125,30,-0.0500000000,A01A3A,5,1553835054000
1553835054250.0000000000,30,-0.0500000000,A01A3A,5,1553835054000
1553835054265.6201171875,30,0E-10,A01A3A,5,1553835054000
1553835054281.2500000000,30,0.1300000000,A01A3A,5,1553835054000
1553835054296.8798828125,30,0.3600000000,A01A3A,5,1553835054000
1553835054312.5000000000,30,0.6600000000,A01A3A,5,1553835054000
1553835054328.1201171875,30,1.0100000000,A01A3A,5,1553835054000
1553835054343.7500000000,30,1.3700000000,A01A3A,5,1553835054000
1553835054359.3798828125,30,1.7200000000,A01A3A,5,1553835054000
1553835054375.0000000000,30,2.0600000000,A01A3A,5,1553835054000
1553835054390.6201171875,30,2.4000000000,A01A3A,5,1553835054000
1553835054406.2500000000,30,2.7900000000,A01A3A,5,1553835054000
1553835054421.8798828125,30,3.2400000000,A01A3A,5,1553835054000
1553835054437.5000000000,30,3.8000000000,A01A3A,5,1553835054000
1553835054453.1201171875,30,4.4200000000,A01A3A,5,1553835054000
1553835054468.7500000000,30,5.0600000000,A01A3A,5,1553835054000
1553835054484.3798828125,30,5.6600000000,A01A3A,5,1553835054000
1553835054500.0000000000,30,6.2000000000,A01A3A,5,1553835054000
1553835054515.6201171875,30,6.6800000000,A01A3A,5,1553835054000
1553835054531.2500000000,30,7.1500000000,A01A3A,5,1553835054000
1553835054546.8798828125,30,7.6800000000,A01A3A,5,1553835054000
1553835054562.5000000000,30,8.3100000000,A01A3A,5,1553835054000
1553835054578.1201171875,30,9.1400000000,A01A3A,5,1553835054000
1553835054593.7500000000,30,10.0900000000,A01A3A,5,1553835054000
1553835054609.3798828125,30,11.0400000000,A01A3A,5,1553835054000
1553835054625.0000000000,30,11.8800000000,A01A3A,5,1553835054000
1553835054640.6201171875,30,12.5600000000,A01A3A,5,1553835054000
1553835054656.2500000000,30,13.1400000000,A01A3A,5,1553835054000
1553835054671.8798828125,30,13.7600000000,A01A3A,5,1553835054000
1553835054687.5000000000,30,14.6500000000,A01A3A,5,1553835054000
1553835054703.1201171875,30,15.9600000000,A01A3A,5,1553835054000
1553835054718.7500000000,30,17.9100000000,A01A3A,5,1553835054000
1553835054734.3798828125,30,20.3200000000,A01A3A,5,1553835054000
1553835054750.0000000000,30,22.9000000000,A01A3A,5,1553835054000
1553835054765.6201171875,30,25.3800000000,A01A3A,5,1553835054000
1553835054781.2500000000,30,27.5800000000,A01A3A,5,1553835054000
1553835054796.8798828125,30,29.5700000000,A01A3A,5,1553835054000
1553835054812.5000000000,30,31.6800000000,A01A3A,5,1553835054000
1553835054828.1201171875,30,34.3200000000,A01A3A,5,1553835054000
1553835054843.7500000000,30,37.8100000000,A01A3A,5,1553835054000
1553835054859.3798828125,30,42.5400000000,A01A3A,5,1553835054000
1553835054875.0000000000,30,48.1500000000,A01A3A,5,1553835054000
1553835054890.6201171875,30,54.1000000000,A01A3A,5,1553835054000
1553835054906.2500000000,30,59.8300000000,A01A3A,5,1553835054000
1553835054921.8798828125,30,64.9700000000,A01A3A,5,1553835054000
1553835054937.5000000000,30,69.5800000000,A01A3A,5,1553835054000
1553835054953.1201171875,30,74.1400000000,A01A3A,5,1553835054000
1553835054968.7500000000,30,79.3400000000,A01A3A,5,1553835054000
1553835054984.3798828125,30,85.7100000000,A01A3A,5,1553835054000
1553835055000.0000000000,30,93.7600000000,A01A3A,5,1553835054000
1553835055015.6201171875,30,103.0000000000,A01A3A,5,1553835054000
1553835055031.2500000000,30,112.6200000000,A01A3A,5,1553835054000
1553835055046.8798828125,30,121.7300000000,A01A3A,5,1553835054000
1553835055062.5000000000,30,129.7700000000,A01A3A,5,1553835054000
1553835055078.1201171875,30,136.7500000000,A01A3A,5,1553835054000
1553835055093.7500000000,30,143.3000000000,A01A3A,5,1553835054000
1553835055109.3798828125,30,150.7500000000,A01A3A,5,1553835054000
1553835055125.0000000000,30,157.7700000000,A01A3A,5,1553835054000
1553835055140.6201171875,30,166.6400000000,A01A3A,5,1553835054000
1553835055156.2500000000,30,177.9500000000,A01A3A,5,1553835054000
1553835055171.8798828125,30,191.7900000000,A01A3A,5,1553835054000
1553835055187.5000000000,30,206.9700000000,A01A3A,5,1553835054000
1553835055203.1201171875,30,220.5700000000,A01A3A,5,1553835054000
1553835055218.7500000000,30,228.2500000000,A01A3A,5,1553835054000
1553835055234.3798828125,30,225.3600000000,A01A3A,5,1553835054000
1553835055250.0000000000,30,208.5300000000,A01A3A,5,1553835054000
1553835055265.6201171875,30,176.8700000000,A01A3A,5,1553835054000
1553835055281.2500000000,30,132.7600000000,A01A3A,5,1553835054000
1553835055296.8798828125,30,80.0500000000,A01A3A,5,1553835054000
1553835055312.5000000000,30,23.0700000000,A01A3A,5,1553835054000
1553835055328.1201171875,30,-34.9400000000,A01A3A,5,1553835054000
1553835055343.7500000000,30,-92.4400000000,A01A3A,5,1553835054000
1553835055359.3798828125,30,-149.1600000000,A01A3A,5,1553835054000
1553835055375.0000000000,30,-205.2300000000,A01A3A,5,1553835054000
1553835055390.6201171875,30,-260.3700000000,A01A3A,5,1553835054000
1553835055406.2500000000,30,-313.7400000000,A01A3A,5,1553835054000
1553835055421.8798828125,30,-363.8600000000,A01A3A,5,1553835054000
1553835055437.5000000000,30,-409.8100000000,A01A3A,5,1553835054000
1553835055453.1201171875,30,-450.8700000000,A01A3A,5,1553835054000
1553835055468.7500000000,30,-486.4400000000,A01A3A,5,1553835054000
1553835055484.3798828125,30,-515.6500000000,A01A3A,5,1553835054000
1553835055500.0000000000,30,-537.1100000000,A01A3A,5,1553835054000
1553835055515.6201171875,30,-549.0600000000,A01A3A,5,1553835054000
1553835055531.2500000000,30,-549.7600000000,A01A3A,5,1553835054000
1553835055546.8798828125,30,-538.1200000000,A01A3A,5,1553835054000
1553835055562.5000000000,30,-513.9000000000,A01A3A,5,1553835054000
1553835055578.1201171875,30,-478.3100000000,A01A3A,5,1553835054000
1553835055593.7500000000,30,-433.4500000000,A01A3A,5,1553835054000
1553835055609.3798828125,30,-381.9600000000,A01A3A,5,1553835054000
1553835055625.0000000000,30,-326.4600000000,A01A3A,5,1553835054000
1553835055640.6201171875,30,-269.2100000000,A01A3A,5,1553835054000
1553835055656.2500000000,30,-211.9400000000,A01A3A,5,1553835054000
1553835055671.8798828125,30,-155.8900000000,A01A3A,5,1553835054000
1553835055687.5000000000,30,-102.1000000000,A01A3A,5,1553835054000
1553835055703.1201171875,30,-51.4400000000,A01A3A,5,1553835054000
1553835055718.7500000000,30,-4.8900000000,A01A3A,5,1553835054000
1553835055734.3798828125,30,36.6900000000,A01A3A,5,1553835054000
1553835055750.0000000000,30,72.6300000000,A01A3A,5,1553835054000
1553835055765.6201171875,30,102.6700000000,A01A3A,5,1553835054000
1553835055781.2500000000,30,126.9400000000,A01A3A,5,1553835054000
1553835055796.8798828125,30,145.9500000000,A01A3A,5,1553835054000
1553835055812.5000000000,30,160.4100000000,A01A3A,5,1553835054000
1553835055828.1201171875,30,171.0300000000,A01A3A,5,1553835054000
1553835055843.7500000000,30,178.4400000000,A01A3A,5,1553835054000
1553835055859.3798828125,30,183.0200000000,A01A3A,5,1553835054000
1553835055875.0000000000,30,185.0800000000,A01A3A,5,1553835054000
1553835055890.6201171875,30,184.8300000000,A01A3A,5,1553835054000
1553835055906.2500000000,30,182.5500000000,A01A3A,5,1553835054000
1553835055921.8798828125,30,178.6000000000,A01A3A,5,1553835054000
1553835055937.5000000000,30,173.3600000000,A01A3A,5,1553835054000
1553835055953.1201171875,30,167.2800000000,A01A3A,5,1553835054000
1553835055968.7500000000,30,160.6700000000,A01A3A,5,1553835054000
1553835055984.3798828125,30,153.8000000000,A01A3A,5,1553835054000
1553835056000.0000000000,30,146.8100000000,A01A3A,5,1553835054000
1553835056015.6201171875,30,139.7600000000,A01A3A,5,1553835054000
1553835056031.2500000000,30,132.7000000000,A01A3A,5,1553835054000
1553835056046.8798828125,30,125.6800000000,A01A3A,5,1553835054000
1553835056062.5000000000,30,118.7500000000,A01A3A,5,1553835054000
1553835056078.1201171875,30,111.9900000000,A01A3A,5,1553835054000
1553835056093.7500000000,30,105.4700000000,A01A3A,5,1553835054000
1553835056109.3798828125,30,99.2400000000,A01A3A,5,1553835054000
1553835056125.0000000000,30,93.3300000000,A01A3A,5,1553835054000
1553835056140.6201171875,30,87.7600000000,A01A3A,5,1553835054000
1553835056156.2500000000,30,82.5500000000,A01A3A,5,1553835054000
1553835056171.8798828125,30,77.7000000000,A01A3A,5,1553835054000
1553835056187.5000000000,30,73.2100000000,A01A3A,5,1553835054000
1553835056203.1201171875,30,69.1000000000,A01A3A,5,1553835054000
1553835056218.7500000000,30,65.3700000000,A01A3A,5,1553835054000
1553835056234.3798828125,30,62.0400000000,A01A3A,5,1553835054000
1553835056250.0000000000,30,59.1100000000,A01A3A,5,1553835054000
1553835056265.6201171875,30,56.5800000000,A01A3A,5,1553835054000
1553835056281.2500000000,30,54.4400000000,A01A3A,5,1553835054000
1553835056296.8798828125,30,52.6700000000,A01A3A,5,1553835054000
1553835056312.5000000000,30,51.2500000000,A01A3A,5,1553835054000
1553835056328.1201171875,30,50.1200000000,A01A3A,5,1553835054000
1553835056343.7500000000,30,49.1800000000,A01A3A,5,1553835054000
1553835056359.3798828125,30,48.3300000000,A01A3A,5,1553835054000
1553835056375.0000000000,30,47.4100000000,A01A3A,5,1553835054000
1553835056390.6201171875,30,46.2500000000,A01A3A,5,1553835054000
1553835056406.2500000000,30,44.6800000000,A01A3A,5,1553835054000
1553835056421.8798828125,30,42.5200000000,A01A3A,5,1553835054000
1553835056437.5000000000,30,39.6400000000,A01A3A,5,1553835054000
1553835056453.1201171875,30,35.9600000000,A01A3A,5,1553835054000
1553835056468.7500000000,30,31.4600000000,A01A3A,5,1553835054000
1553835056484.3798828125,30,26.2200000000,A01A3A,5,1553835054000
1553835056500.0000000000,30,20.3100000000,A01A3A,5,1553835054000
1553835056515.6201171875,30,13.9400000000,A01A3A,5,1553835054000
1553835056531.2500000000,30,7.3500000000,A01A3A,5,1553835054000
1553835056546.8798828125,30,0.7900000000,A01A3A,5,1553835054000
1553835056562.5000000000,30,-5.4400000000,A01A3A,5,1553835054000
1553835056578.1201171875,30,-11.1100000000,A01A3A,5,1553835054000
1553835056593.7500000000,30,-16.0000000000,A01A3A,5,1553835054000
1553835056609.3798828125,30,-19.9800000000,A01A3A,5,1553835054000
1553835056625.0000000000,30,-22.9600000000,A01A3A,5,1553835054000
1553835056640.6201171875,30,-24.9400000000,A01A3A,5,1553835054000
1553835056656.2500000000,30,-25.9600000000,A01A3A,5,1553835054000
1553835056671.8798828125,30,-26.1200000000,A01A3A,5,1553835054000
1553835056687.5000000000,30,-25.5600000000,A01A3A,5,1553835054000
1553835056703.1201171875,30,-24.4200000000,A01A3A,5,1553835054000
1553835056718.7500000000,30,-22.8500000000,A01A3A,5,1553835054000
1553835056734.3798828125,30,-20.9700000000,A01A3A,5,1553835054000
1553835056750.0000000000,30,-18.8900000000,A01A3A,5,1553835054000
1553835056765.6201171875,30,-16.6800000000,A01A3A,5,1553835054000
1553835056781.2500000000,30,-14.3800000000,A01A3A,5,1553835054000
1553835056796.8798828125,30,-12.0200000000,A01A3A,5,1553835054000
1553835056812.5000000000,30,-9.6300000000,A01A3A,5,1553835054000
1553835056828.1201171875,30,-7.2200000000,A01A3A,5,1553835054000
1553835056843.7500000000,30,-4.8000000000,A01A3A,5,1553835054000
1553835056859.3798828125,30,-2.3700000000,A01A3A,5,1553835054000
1553835056875.0000000000,30,0.0700000000,A01A3A,5,1553835054000
1553835056890.6201171875,30,2.5400000000,A01A3A,5,1553835054000
1553835056906.2500000000,30,5.0500000000,A01A3A,5,1553835054000
1553835056921.8798828125,30,7.6300000000,A01A3A,5,1553835054000
1553835056937.5000000000,30,10.3300000000,A01A3A,5,1553835054000
1553835056953.1201171875,30,13.1100000000,A01A3A,5,1553835054000
1553835056968.7500000000,30,15.9600000000,A01A3A,5,1553835054000
1553835056984.3798828125,30,18.9000000000,A01A3A,5,1553835054000
1553835057000.0000000000,30,21.9500000000,A01A3A,5,1553835054000
1553835057015.6201171875,30,25.1200000000,A01A3A,5,1553835054000
1553835057031.2500000000,30,28.4300000000,A01A3A,5,1553835054000
1553835057046.8798828125,30,31.9200000000,A01A3A,5,1553835054000
1553835057062.5000000000,30,35.6100000000,A01A3A,5,1553835054000
1553835057078.1201171875,30,39.5700000000,A01A3A,5,1553835054000
1553835057093.7500000000,30,43.7000000000,A01A3A,5,1553835054000
1553835057109.3798828125,30,47.9400000000,A01A3A,5,1553835054000
1553835057125.0000000000,30,52.2500000000,A01A3A,5,1553835054000
1553835057140.6201171875,30,56.6300000000,A01A3A,5,1553835054000
1553835057156.2500000000,30,61.0800000000,A01A3A,5,1553835054000
1553835057171.8798828125,30,65.6100000000,A01A3A,5,1553835054000
1553835057187.5000000000,30,70.2800000000,A01A3A,5,1553835054000
1553835057203.1201171875,30,75.1500000000,A01A3A,5,1553835054000
1553835057218.7500000000,30,80.3400000000,A01A3A,5,1553835054000
1553835057234.3798828125,30,85.7100000000,A01A3A,5,1553835054000
1553835057250.0000000000,30,91.1900000000,A01A3A,5,1553835054000
1553835057265.6201171875,30,96.7500000000,A01A3A,5,1553835054000
1553835057281.2500000000,30,102.3800000000,A01A3A,5,1553835054000
1553835057296.8798828125,30,108.0500000000,A01A3A,5,1553835054000
1553835057312.5000000000,30,113.7600000000,A01A3A,5,1553835054000
1553835057328.1201171875,30,119.5000000000,A01A3A,5,1553835054000
1553835057343.7500000000,30,125.2800000000,A01A3A,5,1553835054000
1553835057359.3798828125,30,131.1300000000,A01A3A,5,1553835054000
1553835057375.0000000000,30,136.7600000000,A01A3A,5,1553835054000
1553835057390.6201171875,30,141.9100000000,A01A3A,5,1553835054000
1553835057406.2500000000,30,146.3800000000,A01A3A,5,1553835054000
1553835057421.8798828125,30,149.9100000000,A01A3A,5,1553835054000
1553835057437.5000000000,30,152.2300000000,A01A3A,5,1553835054000
1553835057453.1201171875,30,153.0000000000,A01A3A,5,1553835054000
1553835057468.7500000000,30,151.7300000000,A01A3A,5,1553835054000
1553835057484.3798828125,30,147.7800000000,A01A3A,5,1553835054000
1553835057500.0000000000,30,142.4600000000,A01A3A,5,1553835054000
1553835057515.6201171875,30,136.2800000000,A01A3A,5,1553835054000
1553835057531.2500000000,30,129.6000000000,A01A3A,5,1553835054000
1553835057546.8798828125,30,122.6300000000,A01A3A,5,1553835054000
1553835057562.5000000000,30,115.5600000000,A01A3A,5,1553835054000
1553835057578.1201171875,30,108.5200000000,A01A3A,5,1553835054000
1553835057593.7500000000,30,101.5900000000,A01A3A,5,1553835054000
1553835057609.3798828125,30,94.9000000000,A01A3A,5,1553835054000
1553835057625.0000000000,30,88.5200000000,A01A3A,5,1553835054000
1553835057640.6201171875,30,82.5900000000,A01A3A,5,1553835054000
1553835057656.2500000000,30,76.9300000000,A01A3A,5,1553835054000
1553835057671.8798828125,30,71.4400000000,A01A3A,5,1553835054000
1553835057687.5000000000,30,66.0600000000,A01A3A,5,1553835054000
1553835057703.1201171875,30,60.7900000000,A01A3A,5,1553835054000
1553835057718.7500000000,30,55.6300000000,A01A3A,5,1553835054000
1553835057734.3798828125,30,50.6300000000,A01A3A,5,1553835054000
1553835057750.0000000000,30,45.8400000000,A01A3A,5,1553835054000
1553835057765.6201171875,30,41.3600000000,A01A3A,5,1553835054000
1553835057781.2500000000,30,37.3200000000,A01A3A,5,1553835054000
1553835057796.8798828125,30,33.5900000000,A01A3A,5,1553835054000
1553835057812.5000000000,30,30.1300000000,A01A3A,5,1553835054000
1553835057828.1201171875,30,26.9000000000,A01A3A,5,1553835054000
1553835057843.7500000000,30,23.9100000000,A01A3A,5,1553835054000
1553835057859.3798828125,30,21.1500000000,A01A3A,5,1553835054000
1553835057875.0000000000,30,18.6200000000,A01A3A,5,1553835054000
1553835057890.6201171875,30,16.3400000000,A01A3A,5,1553835054000
1553835057906.2500000000,30,14.3400000000,A01A3A,5,1553835054000
1553835057921.8798828125,30,12.6400000000,A01A3A,5,1553835054000
1553835057937.5000000000,30,11.1500000000,A01A3A,5,1553835054000
1553835057953.1201171875,30,9.7900000000,A01A3A,5,1553835054000
1553835057968.7500000000,30,8.5300000000,A01A3A,5,1553835054000
1553835057984.3798828125,30,7.3200000000,A01A3A,5,1553835054000
1553835058000.0000000000,30,6.1400000000,A01A3A,5,1553835054000
1553835058015.6201171875,30,4.9600000000,A01A3A,5,1553835054000
1553835058031.2500000000,30,3.7400000000,A01A3A,5,1553835054000
1553835058046.8798828125,30,2.4800000000,A01A3A,5,1553835054000
1553835058062.5000000000,30,1.2100000000,A01A3A,5,1553835054000
1553835058078.1201171875,30,-0.0800000000,A01A3A,5,1553835054000
1553835058093.7500000000,30,-1.3800000000,A01A3A,5,1553835054000
1553835058109.3798828125,30,-2.6300000000,A01A3A,5,1553835054000
1553835058125.0000000000,30,-3.8000000000,A01A3A,5,1553835054000
1553835058140.6201171875,30,-4.8600000000,A01A3A,5,1553835054000
1553835058156.2500000000,30,-5.8100000000,A01A3A,5,1553835054000
1553835058171.8798828125,30,-6.6800000000,A01A3A,5,1553835054000
1553835058187.5000000000,30,-7.4700000000,A01A3A,5,1553835054000
1553835058203.1201171875,30,-8.1800000000,A01A3A,5,1553835054000
1553835058218.7500000000,30,-8.8200000000,A01A3A,5,1553835054000
1553835058234.3798828125,30,-9.3500000000,A01A3A,5,1553835054000
1553835058250.0000000000,30,-9.7600000000,A01A3A,5,1553835054000
1553835058265.6201171875,30,-10.0300000000,A01A3A,5,1553835054000
1553835058281.2500000000,30,-10.2100000000,A01A3A,5,1553835054000
1553835058296.8798828125,30,-10.3900000000,A01A3A,5,1553835054000
1553835058312.5000000000,30,-10.6500000000,A01A3A,5,1553835054000
1553835058328.1201171875,30,-11.1200000000,A01A3A,5,1553835054000
1553835058343.7500000000,30,-11.8300000000,A01A3A,5,1553835054000
1553835058359.3798828125,30,-12.7700000000,A01A3A,5,1553835054000
1553835058375.0000000000,30,-13.8500000000,A01A3A,5,1553835054000
1553835058390.6201171875,30,-14.9800000000,A01A3A,5,1553835054000
1553835058406.2500000000,30,-16.0900000000,A01A3A,5,1553835054000
1553835058421.8798828125,30,-17.2400000000,A01A3A,5,1553835054000
1553835058437.5000000000,30,-18.5600000000,A01A3A,5,1553835054000
1553835058453.1201171875,30,-20.2700000000,A01A3A,5,1553835054000
1553835058468.7500000000,30,-22.5000000000,A01A3A,5,1553835054000
1553835058484.3798828125,30,-25.3200000000,A01A3A,5,1553835054000
1553835058500.0000000000,30,-28.5600000000,A01A3A,5,1553835054000
1553835058515.6201171875,30,-31.9400000000,A01A3A,5,1553835054000
1553835058531.2500000000,30,-35.1700000000,A01A3A,5,1553835054000
1553835058546.8798828125,30,-38.0600000000,A01A3A,5,1553835054000
1553835058562.5000000000,30,-40.6600000000,A01A3A,5,1553835054000
1553835058578.1201171875,30,-43.2900000000,A01A3A,5,1553835054000
1553835058593.7500000000,30,-46.4100000000,A01A3A,5,1553835054000
1553835058609.3798828125,30,-50.4100000000,A01A3A,5,1553835054000
1553835058625.0000000000,30,-55.4800000000,A01A3A,5,1553835054000
1553835058640.6201171875,30,-61.4300000000,A01A3A,5,1553835054000
1553835058656.2500000000,30,-67.8400000000,A01A3A,5,1553835054000
1553835058671.8798828125,30,-74.1900000000,A01A3A,5,1553835054000
1553835058687.5000000000,30,-80.2200000000,A01A3A,5,1553835054000
1553835058703.1201171875,30,-86.0100000000,A01A3A,5,1553835054000
1553835058718.7500000000,30,-92.0800000000,A01A3A,5,1553835054000
1553835058734.3798828125,30,-99.1400000000,A01A3A,5,1553835054000
1553835058750.0000000000,30,-107.8000000000,A01A3A,5,1553835054000
1553835058765.6201171875,30,-118.2600000000,A01A3A,5,1553835054000
1553835058781.2500000000,30,-130.2000000000,A01A3A,5,1553835054000
1553835058796.8798828125,30,-142.9700000000,A01A3A,5,1553835054000
1553835058812.5000000000,30,-155.8000000000,A01A3A,5,1553835054000
1553835058828.1201171875,30,-168.2300000000,A01A3A,5,1553835054000
1553835058843.7500000000,30,-180.2200000000,A01A3A,5,1553835054000
1553835058859.3798828125,30,-192.2000000000,A01A3A,5,1553835054000
1553835058875.0000000000,30,-204.8300000000,A01A3A,5,1553835054000
1553835058890.6201171875,30,-218.9700000000,A01A3A,5,1553835054000
1553835058906.2500000000,30,-235.5400000000,A01A3A,5,1553835054000
1553835058921.8798828125,30,-255.3600000000,A01A3A,5,1553835054000
1553835058937.5000000000,30,-278.7400000000,A01A3A,5,1553835054000
1553835058953.1201171875,30,-304.7900000000,A01A3A,5,1553835054000
1553835058968.7500000000,30,-331.0700000000,A01A3A,5,1553835054000
1553835058984.3798828125,30,-353.7600000000,A01A3A,5,1553835054000
1553835059000.0000000000,30,-368.6100000000,A01A3A,5,1553835054000
1553835059015.6201171875,30,-372.4300000000,A01A3A,5,1553835054000
1553835059031.2500000000,30,-364.2900000000,A01A3A,5,1553835054000
1553835059046.8798828125,30,-345.9000000000,A01A3A,5,1553835054000
1553835059062.5000000000,30,-320.8500000000,A01A3A,5,1553835054000
1553835059078.1201171875,30,-293.2000000000,A01A3A,5,1553835054000
1553835059093.7500000000,30,-266.0500000000,A01A3A,5,1553835054000
1553835059109.3798828125,30,-241.0700000000,A01A3A,5,1553835054000
1553835059125.0000000000,30,-218.5800000000,A01A3A,5,1553835054000
1553835059140.6201171875,30,-198.4400000000,A01A3A,5,1553835054000
1553835059156.2500000000,30,-180.6000000000,A01A3A,5,1553835054000
1553835059171.8798828125,30,-165.1600000000,A01A3A,5,1553835054000
1553835059187.5000000000,30,-152.1000000000,A01A3A,5,1553835054000
1553835059203.1201171875,30,-140.8000000000,A01A3A,5,1553835054000
1553835059218.7500000000,30,-130.0000000000,A01A3A,5,1553835054000
1553835059234.3798828125,30,-118.2500000000,A01A3A,5,1553835054000
1553835059250.0000000000,30,-104.4800000000,A01A3A,5,1553835054000
1553835059265.6201171875,30,-88.4900000000,A01A3A,5,1553835054000
1553835059281.2500000000,30,-71.0200000000,A01A3A,5,1553835054000
1553835059296.8798828125,30,-53.4700000000,A01A3A,5,1553835054000
1553835059312.5000000000,30,-37.2700000000,A01A3A,5,1553835054000
1553835059328.1201171875,30,-23.4000000000,A01A3A,5,1553835054000
1553835059343.7500000000,30,-12.1000000000,A01A3A,5,1553835054000
1553835059359.3798828125,30,-3.0300000000,A01A3A,5,1553835054000
1553835059375.0000000000,30,4.5500000000,A01A3A,5,1553835054000
1553835059390.6201171875,30,11.2600000000,A01A3A,5,1553835054000
1553835059406.2500000000,30,17.4400000000,A01A3A,5,1553835054000
1553835059421.8798828125,30,22.9900000000,A01A3A,5,1553835054000
1553835059437.5000000000,30,27.5700000000,A01A3A,5,1553835054000
1553835059453.1201171875,30,30.8400000000,A01A3A,5,1553835054000
1553835059468.7500000000,30,32.7000000000,A01A3A,5,1553835054000
1553835059484.3798828125,30,33.4300000000,A01A3A,5,1553835054000
1553835059500.0000000000,30,33.5600000000,A01A3A,5,1553835054000
1553835059515.6201171875,30,33.7000000000,A01A3A,5,1553835054000
1553835059531.2500000000,30,34.2800000000,A01A3A,5,1553835054000
1553835059546.8798828125,30,35.4000000000,A01A3A,5,1553835054000
1553835059562.5000000000,30,36.7300000000,A01A3A,5,1553835054000
1553835059578.1201171875,30,37.7600000000,A01A3A,5,1553835054000
1553835059593.7500000000,30,38.0400000000,A01A3A,5,1553835054000
1553835059609.3798828125,30,37.3800000000,A01A3A,5,1553835054000
1553835059625.0000000000,30,35.9600000000,A01A3A,5,1553835054000
1553835059640.6201171875,30,34.1800000000,A01A3A,5,1553835054000
1553835059656.2500000000,30,32.4300000000,A01A3A,5,1553835054000
1553835059671.8798828125,30,30.7800000000,A01A3A,5,1553835054000
1553835059687.5000000000,30,29.0000000000,A01A3A,5,1553835054000
1553835059703.1201171875,30,26.6100000000,A01A3A,5,1553835054000
1553835059718.7500000000,30,23.2400000000,A01A3A,5,1553835054000
1553835059734.3798828125,30,18.9000000000,A01A3A,5,1553835054000
1553835059750.0000000000,30,14.0600000000,A01A3A,5,1553835054000
1553835059765.6201171875,30,9.6200000000,A01A3A,5,1553835054000
1553835059781.2500000000,30,6.5400000000,A01A3A,5,1553835054000
1553835059796.8798828125,30,5.5300000000,A01A3A,5,1553835054000
1553835059812.5000000000,30,6.8100000000,A01A3A,5,1553835054000
1553835059828.1201171875,30,10.0700000000,A01A3A,5,1553835054000
1553835059843.7500000000,30,14.6000000000,A01A3A,5,1553835054000
1553835059859.3798828125,30,19.5400000000,A01A3A,5,1553835054000
1553835059875.0000000000,30,24.2200000000,A01A3A,5,1553835054000
1553835059890.6201171875,30,28.2600000000,A01A3A,5,1553835054000
1553835059906.2500000000,30,31.5400000000,A01A3A,5,1553835054000
1553835059921.8798828125,30,34.0700000000,A01A3A,5,1553835054000
1553835059937.5000000000,30,35.8900000000,A01A3A,5,1553835054000
1553835059953.1201171875,30,37.0000000000,A01A3A,5,1553835054000
1553835059968.7500000000,30,37.3900000000,A01A3A,5,1553835054000
1553835059984.3798828125,30,37.1100000000,A01A3A,5,1553835054000
1553835060000.0000000000,30,36.3600000000,A01A3A,5,1553835054000
1553835060015.6201171875,30,35.3900000000,A01A3A,5,1553835054000
1553835060031.2500000000,30,34.4300000000,A01A3A,5,1553835054000
1553835060046.8798828125,30,33.5700000000,A01A3A,5,1553835054000
1553835060062.5000000000,30,32.6900000000,A01A3A,5,1553835054000
1553835060078.1201171875,30,31.5900000000,A01A3A,5,1553835054000
1553835060093.7500000000,30,30.1000000000,A01A3A,5,1553835054000
1553835060109.3798828125,30,28.1800000000,A01A3A,5,1553835054000
1553835060125.0000000000,30,25.9800000000,A01A3A,5,1553835054000
1553835060140.6201171875,30,23.7400000000,A01A3A,5,1553835054000
1553835060156.2500000000,30,21.6800000000,A01A3A,5,1553835054000
1553835060171.8798828125,30,19.9300000000,A01A3A,5,1553835054000
1553835060187.5000000000,30,18.4500000000,A01A3A,5,1553835054000
1553835060203.1201171875,30,17.0900000000,A01A3A,5,1553835054000
1553835060218.7500000000,30,15.6600000000,A01A3A,5,1553835054000
1553835060234.3798828125,30,13.9600000000,A01A3A,5,1553835054000
1553835060250.0000000000,30,11.8200000000,A01A3A,5,1553835054000
1553835060265.6201171875,30,9.1100000000,A01A3A,5,1553835054000
1553835060281.2500000000,30,5.8200000000,A01A3A,5,1553835054000
1553835060296.8798828125,30,2.1000000000,A01A3A,5,1553835054000
1553835060312.5000000000,30,-1.6700000000,A01A3A,5,1553835054000
1553835060328.1201171875,30,-4.9200000000,A01A3A,5,1553835054000
1553835060343.7500000000,30,-7.0000000000,A01A3A,5,1553835054000
1553835060359.3798828125,30,-7.4100000000,A01A3A,5,1553835054000
1553835060375.0000000000,30,-5.9200000000,A01A3A,5,1553835054000
1553835060390.6201171875,30,-2.7600000000,A01A3A,5,1553835054000
1553835060406.2500000000,30,1.5100000000,A01A3A,5,1553835054000
1553835060421.8798828125,30,6.2000000000,A01A3A,5,1553835054000
1553835060437.5000000000,30,10.6900000000,A01A3A,5,1553835054000
1553835060453.1201171875,30,14.6500000000,A01A3A,5,1553835054000
1553835060468.7500000000,30,17.9600000000,A01A3A,5,1553835054000
1553835060484.3798828125,30,20.6900000000,A01A3A,5,1553835054000
1553835060500.0000000000,30,22.8600000000,A01A3A,5,1553835054000
1553835060515.6201171875,30,24.5000000000,A01A3A,5,1553835054000
1553835060531.2500000000,30,25.5000000000,A01A3A,5,1553835054000
1553835060546.8798828125,30,25.8100000000,A01A3A,5,1553835054000
1553835060562.5000000000,30,25.4700000000,A01A3A,5,1553835054000
1553835060578.1201171875,30,24.6300000000,A01A3A,5,1553835054000
1553835060593.7500000000,30,23.5400000000,A01A3A,5,1553835054000
1553835060609.3798828125,30,22.4300000000,A01A3A,5,1553835054000
1553835060625.0000000000,30,21.4600000000,A01A3A,5,1553835054000
1553835060640.6201171875,30,20.6600000000,A01A3A,5,1553835054000
1553835060656.2500000000,30,19.9700000000,A01A3A,5,1553835054000
1553835060671.8798828125,30,19.2300000000,A01A3A,5,1553835054000
1553835060687.5000000000,30,18.3200000000,A01A3A,5,1553835054000
1553835060703.1201171875,30,17.1600000000,A01A3A,5,1553835054000
1553835060718.7500000000,30,15.7400000000,A01A3A,5,1553835054000
1553835060734.3798828125,30,14.1600000000,A01A3A,5,1553835054000
1553835060750.0000000000,30,12.5300000000,A01A3A,5,1553835054000
1553835060765.6201171875,30,10.9600000000,A01A3A,5,1553835054000
1553835060781.2500000000,30,9.4500000000,A01A3A,5,1553835054000
1553835060796.8798828125,30,7.8400000000,A01A3A,5,1553835054000
1553835060812.5000000000,30,5.8700000000,A01A3A,5,1553835054000
1553835060828.1201171875,30,3.2900000000,A01A3A,5,1553835054000
1553835060843.7500000000,30,-0.0500000000,A01A3A,5,1553835054000
1553835060859.3798828125,30,-3.9500000000,A01A3A,5,1553835054000
1553835060875.0000000000,30,-7.8900000000,A01A3A,5,1553835054000
1553835060890.6201171875,30,-11.1000000000,A01A3A,5,1553835054000
1553835060906.2500000000,30,-12.8000000000,A01A3A,5,1553835054000
1553835060921.8798828125,30,-12.4600000000,A01A3A,5,1553835054000
1553835060937.5000000000,30,-9.9900000000,A01A3A,5,1553835054000
1553835060953.1201171875,30,-5.7800000000,A01A3A,5,1553835054000
1553835060968.7500000000,30,-0.5600000000,A01A3A,5,1553835054000
1553835060984.3798828125,30,4.8600000000,A01A3A,5,1553835054000
1553835061000.0000000000,30,9.8300000000,A01A3A,5,1553835054000
1553835061015.6201171875,30,14.0000000000,A01A3A,5,1553835054000
1553835061031.2500000000,30,17.3100000000,A01A3A,5,1553835054000
1553835061046.8798828125,30,19.8600000000,A01A3A,5,1553835054000
1553835061062.5000000000,30,21.7900000000,A01A3A,5,1553835054000
1553835061078.1201171875,30,23.0800000000,A01A3A,5,1553835054000
1553835061093.7500000000,30,23.6900000000,A01A3A,5,1553835054000
1553835061109.3798828125,30,23.6000000000,A01A3A,5,1553835054000
1553835061125.0000000000,30,22.9000000000,A01A3A,5,1553835054000
1553835061140.6201171875,30,21.8500000000,A01A3A,5,1553835054000
1553835061156.2500000000,30,20.7700000000,A01A3A,5,1553835054000
1553835061171.8798828125,30,19.9100000000,A01A3A,5,1553835054000
1553835061187.5000000000,30,19.3000000000,A01A3A,5,1553835054000
1553835061203.1201171875,30,18.8100000000,A01A3A,5,1553835054000
1553835061218.7500000000,30,18.2200000000,A01A3A,5,1553835054000
1553835061234.3798828125,30,17.3300000000,A01A3A,5,1553835054000
1553835061250.0000000000,30,16.2000000000,A01A3A,5,1553835054000
1553835061265.6201171875,30,14.9600000000,A01A3A,5,1553835054000
1553835061281.2500000000,30,13.8400000000,A01A3A,5,1553835054000
1553835061296.8798828125,30,12.9600000000,A01A3A,5,1553835054000
1553835061312.5000000000,30,12.2400000000,A01A3A,5,1553835054000
1553835061328.1201171875,30,11.4400000000,A01A3A,5,1553835054000
1553835061343.7500000000,30,10.2500000000,A01A3A,5,1553835054000
1553835061359.3798828125,30,8.4200000000,A01A3A,5,1553835054000
1553835061375.0000000000,30,5.8400000000,A01A3A,5,1553835054000
1553835061390.6201171875,30,2.5800000000,A01A3A,5,1553835054000
1553835061406.2500000000,30,-1.2100000000,A01A3A,5,1553835054000
1553835061421.8798828125,30,-5.3500000000,A01A3A,5,1553835054000
1553835061437.5000000000,30,-9.6100000000,A01A3A,5,1553835054000
1553835061453.1201171875,30,-13.6500000000,A01A3A,5,1553835054000
1553835061468.7500000000,30,-16.9600000000,A01A3A,5,1553835054000
1553835061484.3798828125,30,-18.9500000000,A01A3A,5,1553835054000
1553835061500.0000000000,30,-19.0800000000,A01A3A,5,1553835054000
1553835061515.6201171875,30,-17.1000000000,A01A3A,5,1553835054000
1553835061531.2500000000,30,-13.2300000000,A01A3A,5,1553835054000
1553835061546.8798828125,30,-8.0900000000,A01A3A,5,1553835054000
1553835061562.5000000000,30,-2.5400000000,A01A3A,5,1553835054000
1553835061578.1201171875,30,2.6200000000,A01A3A,5,1553835054000
1553835061593.7500000000,30,6.9400000000,A01A3A,5,1553835054000
1553835061609.3798828125,30,10.3500000000,A01A3A,5,1553835054000
1553835061625.0000000000,30,13.0700000000,A01A3A,5,1553835054000
1553835061640.6201171875,30,15.4100000000,A01A3A,5,1553835054000
1553835061656.2500000000,30,17.5500000000,A01A3A,5,1553835054000
1553835061671.8798828125,30,19.4100000000,A01A3A,5,1553835054000
1553835061687.5000000000,30,20.7700000000,A01A3A,5,1553835054000
1553835061703.1201171875,30,21.4100000000,A01A3A,5,1553835054000
1553835061718.7500000000,30,21.2700000000,A01A3A,5,1553835054000
1553835061734.3798828125,30,20.5200000000,A01A3A,5,1553835054000
1553835061750.0000000000,30,19.4800000000,A01A3A,5,1553835054000
1553835061765.6201171875,30,18.4700000000,A01A3A,5,1553835054000
1553835061781.2500000000,30,17.6600000000,A01A3A,5,1553835054000
1553835061796.8798828125,30,17.0100000000,A01A3A,5,1553835054000
1553835061812.5000000000,30,16.3100000000,A01A3A,5,1553835054000
1553835061828.1201171875,30,15.3500000000,A01A3A,5,1553835054000
1553835061843.7500000000,30,14.0000000000,A01A3A,5,1553835054000
1553835061859.3798828125,30,12.2900000000,A01A3A,5,1553835054000
1553835061875.0000000000,30,10.4100000000,A01A3A,5,1553835054000
1553835061890.6201171875,30,8.6100000000,A01A3A,5,1553835054000
1553835061906.2500000000,30,7.0900000000,A01A3A,5,1553835054000
1553835061921.8798828125,30,5.9300000000,A01A3A,5,1553835054000
1553835061937.5000000000,30,5.1000000000,A01A3A,5,1553835054000
1553835061953.1201171875,30,4.4200000000,A01A3A,5,1553835054000
1553835061968.7500000000,30,3.6400000000,A01A3A,5,1553835054000
1553835061984.3798828125,30,2.4800000000,A01A3A,5,1553835054000
1553835062000.0000000000,30,0.6500000000,A01A3A,5,1553835054000
1553835062015.6201171875,30,-1.9900000000,A01A3A,5,1553835054000
1553835062031.2500000000,30,-5.3400000000,A01A3A,5,1553835054000
1553835062046.8798828125,30,-8.9900000000,A01A3A,5,1553835054000
1553835062062.5000000000,30,-12.3000000000,A01A3A,5,1553835054000
1553835062078.1201171875,30,-14.5200000000,A01A3A,5,1553835054000
1553835062093.7500000000,30,-15.0700000000,A01A3A,5,1553835054000
1553835062109.3798828125,30,-13.7100000000,A01A3A,5,1553835054000
1553835062125.0000000000,30,-10.6200000000,A01A3A,5,1553835054000
1553835062140.6201171875,30,-6.3500000000,A01A3A,5,1553835054000
1553835062156.2500000000,30,-1.6200000000,A01A3A,5,1553835054000
1553835062171.8798828125,30,2.9500000000,A01A3A,5,1553835054000
1553835062187.5000000000,30,6.9600000000,A01A3A,5,1553835054000
1553835062203.1201171875,30,10.2300000000,A01A3A,5,1553835054000
1553835062218.7500000000,30,12.8000000000,A01A3A,5,1553835054000
1553835062234.3798828125,30,14.7400000000,A01A3A,5,1553835054000
1553835062250.0000000000,30,16.1400000000,A01A3A,5,1553835054000
1553835062265.6201171875,30,17.0800000000,A01A3A,5,1553835054000
1553835062281.2500000000,30,17.5900000000,A01A3A,5,1553835054000
1553835062296.8798828125,30,17.7600000000,A01A3A,5,1553835054000
1553835062312.5000000000,30,17.6300000000,A01A3A,5,1553835054000
1553835062328.1201171875,30,17.2800000000,A01A3A,5,1553835054000
1553835062343.7500000000,30,16.7400000000,A01A3A,5,1553835054000
1553835062359.3798828125,30,16.0800000000,A01A3A,5,1553835054000
1553835062375.0000000000,30,15.2900000000,A01A3A,5,1553835054000
1553835062390.6201171875,30,14.3500000000,A01A3A,5,1553835054000
1553835062406.2500000000,30,13.2600000000,A01A3A,5,1553835054000
1553835062421.8798828125,30,12.0100000000,A01A3A,5,1553835054000
1553835062437.5000000000,30,10.6200000000,A01A3A,5,1553835054000
1553835062453.1201171875,30,9.1300000000,A01A3A,5,1553835054000
1553835062468.7500000000,30,7.6100000000,A01A3A,5,1553835054000
1553835062484.3798828125,30,6.1100000000,A01A3A,5,1553835054000
1553835062500.0000000000,30,4.6800000000,A01A3A,5,1553835054000
1553835062515.6201171875,30,3.3000000000,A01A3A,5,1553835054000
1553835062531.2500000000,30,1.8400000000,A01A3A,5,1553835054000
1553835062546.8798828125,30,0.0600000000,A01A3A,5,1553835054000
1553835062562.5000000000,30,-2.4200000000,A01A3A,5,1553835054000
1553835062578.1201171875,30,-5.8200000000,A01A3A,5,1553835054000
1553835062593.7500000000,30,-10.0900000000,A01A3A,5,1553835054000
1553835062609.3798828125,30,-14.7400000000,A01A3A,5,1553835054000
1553835062625.0000000000,30,-18.8600000000,A01A3A,5,1553835054000
1553835062640.6201171875,30,-21.4300000000,A01A3A,5,1553835054000
1553835062656.2500000000,30,-21.6300000000,A01A3A,5,1553835054000
1553835062671.8798828125,30,-19.2700000000,A01A3A,5,1553835054000
1553835062687.5000000000,30,-14.7800000000,A01A3A,5,1553835054000
1553835062703.1201171875,30,-9.0700000000,A01A3A,5,1553835054000
1553835062718.7500000000,30,-3.1600000000,A01A3A,5,1553835054000
1553835062734.3798828125,30,2.2100000000,A01A3A,5,1553835054000
1553835062750.0000000000,30,6.7000000000,A01A3A,5,1553835054000
1553835062765.6201171875,30,10.3200000000,A01A3A,5,1553835054000
1553835062781.2500000000,30,13.2200000000,A01A3A,5,1553835054000
1553835062796.8798828125,30,15.5300000000,A01A3A,5,1553835054000
1553835062812.5000000000,30,17.1800000000,A01A3A,5,1553835054000
1553835062828.1201171875,30,18.0300000000,A01A3A,5,1553835054000
1553835062843.7500000000,30,17.9500000000,A01A3A,5,1553835054000
1553835062859.3798828125,30,17.0700000000,A01A3A,5,1553835054000
1553835062875.0000000000,30,15.6500000000,A01A3A,5,1553835054000
1553835062890.6201171875,30,14.1500000000,A01A3A,5,1553835054000
1553835062906.2500000000,30,12.9400000000,A01A3A,5,1553835054000
1553835062921.8798828125,30,12.1600000000,A01A3A,5,1553835054000
1553835062937.5000000000,30,11.7300000000,A01A3A,5,1553835054000
1553835062953.1201171875,30,11.3600000000,A01A3A,5,1553835054000
1553835062968.7500000000,30,10.7300000000,A01A3A,5,1553835054000
1553835062984.3798828125,30,9.6900000000,A01A3A,5,1553835054000
1553835063000.0000000000,30,8.2900000000,A01A3A,5,1553835054000
1553835063015.6201171875,30,6.7900000000,A01A3A,5,1553835054000
1553835063031.2500000000,30,5.4500000000,A01A3A,5,1553835054000
1553835063046.8798828125,30,4.4300000000,A01A3A,5,1553835054000
1553835063062.5000000000,30,3.6800000000,A01A3A,5,1553835054000
1553835063078.1201171875,30,2.8300000000,A01A3A,5,1553835054000
1553835063093.7500000000,30,1.3400000000,A01A3A,5,1553835054000
1553835063109.3798828125,30,-1.2700000000,A01A3A,5,1553835054000
1553835063125.0000000000,30,-5.2700000000,A01A3A,5,1553835054000
1553835063140.6201171875,30,-10.4700000000,A01A3A,5,1553835054000
1553835063156.2500000000,30,-16.2100000000,A01A3A,5,1553835054000
1553835063171.8798828125,30,-21.4700000000,A01A3A,5,1553835054000
1553835063187.5000000000,30,-25.1600000000,A01A3A,5,1553835054000
1553835063203.1201171875,30,-26.4500000000,A01A3A,5,1553835054000
1553835063218.7500000000,30,-25.0400000000,A01A3A,5,1553835054000
1553835063234.3798828125,30,-21.1900000000,A01A3A,5,1553835054000
1553835063250.0000000000,30,-15.5500000000,A01A3A,5,1553835054000
1553835063265.6201171875,30,-9.0000000000,A01A3A,5,1553835054000
1553835063281.2500000000,30,-2.3300000000,A01A3A,5,1553835054000
1553835063296.8798828125,30,3.7600000000,A01A3A,5,1553835054000
1553835063312.5000000000,30,8.8200000000,A01A3A,5,1553835054000
1553835063328.1201171875,30,12.6000000000,A01A3A,5,1553835054000
1553835063343.7500000000,30,15.0300000000,A01A3A,5,1553835054000
1553835063359.3798828125,30,16.2800000000,A01A3A,5,1553835054000
1553835063375.0000000000,30,16.6400000000,A01A3A,5,1553835054000
1553835063390.6201171875,30,16.4800000000,A01A3A,5,1553835054000
1553835063406.2500000000,30,16.0900000000,A01A3A,5,1553835054000
1553835063421.8798828125,30,15.6100000000,A01A3A,5,1553835054000
1553835063437.5000000000,30,15.0300000000,A01A3A,5,1553835054000
1553835063453.1201171875,30,14.3200000000,A01A3A,5,1553835054000
1553835063468.7500000000,30,13.4600000000,A01A3A,5,1553835054000
1553835063484.3798828125,30,12.4700000000,A01A3A,5,1553835054000
1553835063500.0000000000,30,11.3900000000,A01A3A,5,1553835054000
1553835063515.6201171875,30,10.2300000000,A01A3A,5,1553835054000
1553835063531.2500000000,30,8.9500000000,A01A3A,5,1553835054000
1553835063546.8798828125,30,7.5000000000,A01A3A,5,1553835054000
1553835063562.5000000000,30,5.9000000000,A01A3A,5,1553835054000
1553835063578.1201171875,30,4.2400000000,A01A3A,5,1553835054000
1553835063593.7500000000,30,2.6400000000,A01A3A,5,1553835054000
1553835063609.3798828125,30,1.2700000000,A01A3A,5,1553835054000
1553835063625.0000000000,30,0.0700000000,A01A3A,5,1553835054000
1553835063640.6201171875,30,-1.1100000000,A01A3A,5,1553835054000
1553835063656.2500000000,30,-2.6400000000,A01A3A,5,1553835054000
1553835063671.8798828125,30,-4.8700000000,A01A3A,5,1553835054000
1553835063687.5000000000,30,-8.0100000000,A01A3A,5,1553835054000
1553835063703.1201171875,30,-11.9700000000,A01A3A,5,1553835054000
1553835063718.7500000000,30,-16.2500000000,A01A3A,5,1553835054000
1553835063734.3798828125,30,-20.0900000000,A01A3A,5,1553835054000
1553835063750.0000000000,30,-22.5900000000,A01A3A,5,1553835054000
1553835063765.6201171875,30,-23.1000000000,A01A3A,5,1553835054000
1553835063781.2500000000,30,-21.3700000000,A01A3A,5,1553835054000
1553835063796.8798828125,30,-17.6600000000,A01A3A,5,1553835054000
1553835063812.5000000000,30,-12.5900000000,A01A3A,5,1553835054000
1553835063828.1201171875,30,-6.9200000000,A01A3A,5,1553835054000
1553835063843.7500000000,30,-1.3300000000,A01A3A,5,1553835054000
1553835063859.3798828125,30,3.7300000000,A01A3A,5,1553835054000
1553835063875.0000000000,30,8.0100000000,A01A3A,5,1553835054000
1553835063890.6201171875,30,11.4000000000,A01A3A,5,1553835054000
1553835063906.2500000000,30,13.8600000000,A01A3A,5,1553835054000
1553835063921.8798828125,30,15.4100000000,A01A3A,5,1553835054000
1553835063937.5000000000,30,16.1200000000,A01A3A,5,1553835054000
1553835063953.1201171875,30,16.1400000000,A01A3A,5,1553835054000
1553835063968.7500000000,30,15.6300000000,A01A3A,5,1553835054000
1553835063984.3798828125,30,14.8300000000,A01A3A,5,1553835054000
1553835064000.0000000000,30,13.9000000000,A01A3A,5,1553835054000
1553835064015.6201171875,30,12.9500000000,A01A3A,5,1553835054000
1553835064031.2500000000,30,11.9900000000,A01A3A,5,1553835054000
1553835064046.8798828125,30,10.9800000000,A01A3A,5,1553835054000
1553835064062.5000000000,30,9.8500000000,A01A3A,5,1553835054000
1553835064078.1201171875,30,8.5300000000,A01A3A,5,1553835054000
1553835064093.7500000000,30,7.0000000000,A01A3A,5,1553835054000
1553835064109.3798828125,30,5.2900000000,A01A3A,5,1553835054000
1553835064125.0000000000,30,3.4900000000,A01A3A,5,1553835054000
1553835064140.6201171875,30,1.7300000000,A01A3A,5,1553835054000
1553835064156.2500000000,30,0.0400000000,A01A3A,5,1553835054000
1553835064171.8798828125,30,-1.5600000000,A01A3A,5,1553835054000
1553835064187.5000000000,30,-3.1300000000,A01A3A,5,1553835054000
1553835064203.1201171875,30,-4.7100000000,A01A3A,5,1553835054000
1553835064218.7500000000,30,-6.3500000000,A01A3A,5,1553835054000
1553835064234.3798828125,30,-8.1400000000,A01A3A,5,1553835054000
1553835064250.0000000000,30,-10.1600000000,A01A3A,5,1553835054000
1553835064265.6201171875,30,-12.5100000000,A01A3A,5,1553835054000
1553835064281.2500000000,30,-15.1400000000,A01A3A,5,1553835054000
1553835064296.8798828125,30,-17.8100000000,A01A3A,5,1553835054000
1553835064312.5000000000,30,-20.0500000000,A01A3A,5,1553835054000
1553835064328.1201171875,30,-21.2200000000,A01A3A,5,1553835054000
1553835064343.7500000000,30,-20.7300000000,A01A3A,5,1553835054000
1553835064359.3798828125,30,-18.2400000000,A01A3A,5,1553835054000
1553835064375.0000000000,30,-13.8400000000,A01A3A,5,1553835054000
1553835064390.6201171875,30,-8.0700000000,A01A3A,5,1553835054000
1553835064406.2500000000,30,-1.6600000000,A01A3A,5,1553835054000
1553835064421.8798828125,30,4.5500000000,A01A3A,5,1553835054000
1553835064437.5000000000,30,9.9700000000,A01A3A,5,1553835054000
1553835064453.1201171875,30,14.2900000000,A01A3A,5,1553835054000
1553835064468.7500000000,30,17.4800000000,A01A3A,5,1553835054000
1553835064484.3798828125,30,19.7000000000,A01A3A,5,1553835054000
1553835064500.0000000000,30,21.1800000000,A01A3A,5,1553835054000
1553835064515.6201171875,30,22.0900000000,A01A3A,5,1553835054000
1553835064531.2500000000,30,22.4300000000,A01A3A,5,1553835054000
1553835064546.8798828125,30,22.1600000000,A01A3A,5,1553835054000
1553835064562.5000000000,30,21.2200000000,A01A3A,5,1553835054000
1553835064578.1201171875,30,19.6800000000,A01A3A,5,1553835054000
1553835064593.7500000000,30,17.8000000000,A01A3A,5,1553835054000
1553835064609.3798828125,30,15.9200000000,A01A3A,5,1553835054000
1553835064625.0000000000,30,14.2900000000,A01A3A,5,1553835054000
1553835064640.6201171875,30,13.0300000000,A01A3A,5,1553835054000
1553835064656.2500000000,30,12.0000000000,A01A3A,5,1553835054000
1553835064671.8798828125,30,10.9200000000,A01A3A,5,1553835054000
1553835064687.5000000000,30,9.5900000000,A01A3A,5,1553835054000
1553835064703.1201171875,30,7.9300000000,A01A3A,5,1553835054000
1553835064718.7500000000,30,6.0900000000,A01A3A,5,1553835054000
1553835064734.3798828125,30,4.2600000000,A01A3A,5,1553835054000
1553835064750.0000000000,30,2.5600000000,A01A3A,5,1553835054000
1553835064765.6201171875,30,0.8400000000,A01A3A,5,1553835054000
1553835064781.2500000000,30,-1.2500000000,A01A3A,5,1553835054000
1553835064796.8798828125,30,-4.1300000000,A01A3A,5,1553835054000
1553835064812.5000000000,30,-8.0200000000,A01A3A,5,1553835054000
1553835064828.1201171875,30,-12.6800000000,A01A3A,5,1553835054000
1553835064843.7500000000,30,-17.5100000000,A01A3A,5,1553835054000
1553835064859.3798828125,30,-21.5400000000,A01A3A,5,1553835054000
1553835064875.0000000000,30,-23.8500000000,A01A3A,5,1553835054000
1553835064890.6201171875,30,-23.8800000000,A01A3A,5,1553835054000
1553835064906.2500000000,30,-21.5600000000,A01A3A,5,1553835054000
1553835064921.8798828125,30,-17.3900000000,A01A3A,5,1553835054000
1553835064937.5000000000,30,-12.2100000000,A01A3A,5,1553835054000
1553835064953.1201171875,30,-6.8700000000,A01A3A,5,1553835054000
1553835064968.7500000000,30,-1.9500000000,A01A3A,5,1553835054000
1553835064984.3798828125,30,2.3100000000,A01A3A,5,1553835054000
1553835065000.0000000000,30,5.9400000000,A01A3A,5,1553835054000
1553835065015.6201171875,30,9.0400000000,A01A3A,5,1553835054000
1553835065031.2500000000,30,11.5700000000,A01A3A,5,1553835054000
1553835065046.8798828125,30,13.3400000000,A01A3A,5,1553835054000
1553835065062.5000000000,30,14.1200000000,A01A3A,5,1553835054000
1553835065078.1201171875,30,13.8600000000,A01A3A,5,1553835054000
1553835065093.7500000000,30,12.7500000000,A01A3A,5,1553835054000
1553835065109.3798828125,30,11.2600000000,A01A3A,5,1553835054000
1553835065125.0000000000,30,9.8500000000,A01A3A,5,1553835054000
1553835065140.6201171875,30,8.8000000000,A01A3A,5,1553835054000
1553835065156.2500000000,30,8.0900000000,A01A3A,5,1553835054000
1553835065171.8798828125,30,7.3900000000,A01A3A,5,1553835054000
1553835065187.5000000000,30,6.3700000000,A01A3A,5,1553835054000
1553835065203.1201171875,30,4.8700000000,A01A3A,5,1553835054000
1553835065218.7500000000,30,3.0600000000,A01A3A,5,1553835054000
1553835065234.3798828125,30,1.3500000000,A01A3A,5,1553835054000
1553835065250.0000000000,30,0.1600000000,A01A3A,5,1553835054000
1553835065265.6201171875,30,-0.2900000000,A01A3A,5,1553835054000
1553835065281.2500000000,30,-0.1100000000,A01A3A,5,1553835054000
1553835065296.8798828125,30,0.2600000000,A01A3A,5,1553835054000
1553835065312.5000000000,30,0.2100000000,A01A3A,5,1553835054000
1553835065328.1201171875,30,-0.7800000000,A01A3A,5,1553835054000
1553835065343.7500000000,30,-2.9700000000,A01A3A,5,1553835054000
1553835065359.3798828125,30,-6.2500000000,A01A3A,5,1553835054000
1553835065375.0000000000,30,-10.1200000000,A01A3A,5,1553835054000
1553835065390.6201171875,30,-13.8700000000,A01A3A,5,1553835054000
1553835065406.2500000000,30,-16.7600000000,A01A3A,5,1553835054000
1553835065421.8798828125,30,-18.1700000000,A01A3A,5,1553835054000
1553835065437.5000000000,30,-17.8200000000,A01A3A,5,1553835054000
1553835065453.1201171875,30,-15.7400000000,A01A3A,5,1553835054000
1553835065468.7500000000,30,-12.2200000000,A01A3A,5,1553835054000
1553835065484.3798828125,30,-7.6700000000,A01A3A,5,1553835054000
1553835065500.0000000000,30,-2.5300000000,A01A3A,5,1553835054000
1553835065515.6201171875,30,2.7900000000,A01A3A,5,1553835054000
1553835065531.2500000000,30,7.8800000000,A01A3A,5,1553835054000
1553835065546.8798828125,30,12.3100000000,A01A3A,5,1553835054000
1553835065562.5000000000,30,15.6400000000,A01A3A,5,1553835054000
1553835065578.1201171875,30,17.5800000000,A01A3A,5,1553835054000
1553835065593.7500000000,30,18.0100000000,A01A3A,5,1553835054000
1553835065609.3798828125,30,17.2000000000,A01A3A,5,1553835054000
1553835065625.0000000000,30,15.6000000000,A01A3A,5,1553835054000
1553835065640.6201171875,30,13.7800000000,A01A3A,5,1553835054000
1553835065656.2500000000,30,12.1500000000,A01A3A,5,1553835054000
1553835065671.8798828125,30,10.8600000000,A01A3A,5,1553835054000
1553835065687.5000000000,30,9.8200000000,A01A3A,5,1553835054000
1553835065703.1201171875,30,8.7800000000,A01A3A,5,1553835054000
1553835065718.7500000000,30,7.5400000000,A01A3A,5,1553835054000
1553835065734.3798828125,30,6.0000000000,A01A3A,5,1553835054000
1553835065750.0000000000,30,4.2300000000,A01A3A,5,1553835054000
1553835065765.6201171875,30,2.3800000000,A01A3A,5,1553835054000
1553835065781.2500000000,30,0.5700000000,A01A3A,5,1553835054000
1553835065796.8798828125,30,-1.1100000000,A01A3A,5,1553835054000
1553835065812.5000000000,30,-2.6200000000,A01A3A,5,1553835054000
1553835065828.1201171875,30,-4.0200000000,A01A3A,5,1553835054000
1553835065843.7500000000,30,-5.3800000000,A01A3A,5,1553835054000
1553835065859.3798828125,30,-6.8400000000,A01A3A,5,1553835054000
1553835065875.0000000000,30,-8.5600000000,A01A3A,5,1553835054000
1553835065890.6201171875,30,-10.6900000000,A01A3A,5,1553835054000
1553835065906.2500000000,30,-13.3100000000,A01A3A,5,1553835054000
1553835065921.8798828125,30,-16.3100000000,A01A3A,5,1553835054000
1553835065937.5000000000,30,-19.3100000000,A01A3A,5,1553835054000
1553835065953.1201171875,30,-21.7000000000,A01A3A,5,1553835054000
1553835065968.7500000000,30,-22.7900000000,A01A3A,5,1553835054000
1553835065984.3798828125,30,-22.0500000000,A01A3A,5,1553835054000
1553835066000.0000000000,30,-19.2800000000,A01A3A,5,1553835054000
1553835066015.6201171875,30,-14.7600000000,A01A3A,5,1553835054000
1553835066031.2500000000,30,-9.1400000000,A01A3A,5,1553835054000
1553835066046.8798828125,30,-3.2500000000,A01A3A,5,1553835054000
1553835066062.5000000000,30,2.1200000000,A01A3A,5,1553835054000
1553835066078.1201171875,30,6.4100000000,A01A3A,5,1553835054000
1553835066093.7500000000,30,9.3900000000,A01A3A,5,1553835054000
1553835066109.3798828125,30,11.0600000000,A01A3A,5,1553835054000
1553835066125.0000000000,30,11.6500000000,A01A3A,5,1553835054000
1553835066140.6201171875,30,11.4300000000,A01A3A,5,1553835054000
1553835066156.2500000000,30,10.7000000000,A01A3A,5,1553835054000
1553835066171.8798828125,30,9.7000000000,A01A3A,5,1553835054000
1553835066187.5000000000,30,8.5900000000,A01A3A,5,1553835054000
1553835066203.1201171875,30,7.5600000000,A01A3A,5,1553835054000
1553835066218.7500000000,30,6.7400000000,A01A3A,5,1553835054000
1553835066234.3798828125,30,6.2600000000,A01A3A,5,1553835054000
1553835066250.0000000000,30,6.1500000000,A01A3A,5,1553835054000
1553835066265.6201171875,30,6.3000000000,A01A3A,5,1553835054000
1553835066281.2500000000,30,6.5000000000,A01A3A,5,1553835054000
1553835066296.8798828125,30,6.4500000000,A01A3A,5,1553835054000
1553835066312.5000000000,30,5.9600000000,A01A3A,5,1553835054000
1553835066328.1201171875,30,4.9500000000,A01A3A,5,1553835054000
1553835066343.7500000000,30,3.5700000000,A01A3A,5,1553835054000
1553835066359.3798828125,30,2.0200000000,A01A3A,5,1553835054000
1553835066375.0000000000,30,0.4800000000,A01A3A,5,1553835054000
1553835066390.6201171875,30,-1.0500000000,A01A3A,5,1553835054000
1553835066406.2500000000,30,-2.7800000000,A01A3A,5,1553835054000
1553835066421.8798828125,30,-4.9800000000,A01A3A,5,1553835054000
1553835066437.5000000000,30,-7.8400000000,A01A3A,5,1553835054000
1553835066453.1201171875,30,-11.2800000000,A01A3A,5,1553835054000
1553835066468.7500000000,30,-14.8700000000,A01A3A,5,1553835054000
1553835066484.3798828125,30,-17.9100000000,A01A3A,5,1553835054000
1553835066500.0000000000,30,-19.6800000000,A01A3A,5,1553835054000
1553835066515.6201171875,30,-19.6000000000,A01A3A,5,1553835054000
1553835066531.2500000000,30,-17.5100000000,A01A3A,5,1553835054000
1553835066546.8798828125,30,-13.6200000000,A01A3A,5,1553835054000
1553835066562.5000000000,30,-8.5400000000,A01A3A,5,1553835054000
1553835066578.1201171875,30,-3.0000000000,A01A3A,5,1553835054000
1553835066593.7500000000,30,2.3200000000,A01A3A,5,1553835054000
1553835066609.3798828125,30,6.9600000000,A01A3A,5,1553835054000
1553835066625.0000000000,30,10.6700000000,A01A3A,5,1553835054000
1553835066640.6201171875,30,13.3700000000,A01A3A,5,1553835054000
1553835066656.2500000000,30,15.0500000000,A01A3A,5,1553835054000
1553835066671.8798828125,30,15.6700000000,A01A3A,5,1553835054000
1553835066687.5000000000,30,15.2500000000,A01A3A,5,1553835054000
1553835066703.1201171875,30,13.9300000000,A01A3A,5,1553835054000
1553835066718.7500000000,30,11.9800000000,A01A3A,5,1553835054000
1553835066734.3798828125,30,9.8000000000,A01A3A,5,1553835054000
1553835066750.0000000000,30,7.8000000000,A01A3A,5,1553835054000
1553835066765.6201171875,30,6.2200000000,A01A3A,5,1553835054000
1553835066781.2500000000,30,5.0800000000,A01A3A,5,1553835054000
1553835066796.8798828125,30,4.2200000000,A01A3A,5,1553835054000
1553835066812.5000000000,30,3.3700000000,A01A3A,5,1553835054000
1553835066828.1201171875,30,2.3900000000,A01A3A,5,1553835054000
1553835066843.7500000000,30,1.3300000000,A01A3A,5,1553835054000
1553835066859.3798828125,30,0.3900000000,A01A3A,5,1553835054000
1553835066875.0000000000,30,-0.2100000000,A01A3A,5,1553835054000
1553835066890.6201171875,30,-0.3900000000,A01A3A,5,1553835054000
1553835066906.2500000000,30,-0.3200000000,A01A3A,5,1553835054000
1553835066921.8798828125,30,-0.3800000000,A01A3A,5,1553835054000
1553835066937.5000000000,30,-1.0100000000,A01A3A,5,1553835054000
1553835066953.1201171875,30,-2.5700000000,A01A3A,5,1553835054000
1553835066968.7500000000,30,-5.1500000000,A01A3A,5,1553835054000
1553835066984.3798828125,30,-8.4600000000,A01A3A,5,1553835054000
1553835067000.0000000000,30,-11.9300000000,A01A3A,5,1553835054000
1553835067015.6201171875,30,-14.8200000000,A01A3A,5,1553835054000
1553835067031.2500000000,30,-16.4000000000,A01A3A,5,1553835054000
1553835067046.8798828125,30,-16.1700000000,A01A3A,5,1553835054000
1553835067062.5000000000,30,-13.9800000000,A01A3A,5,1553835054000
1553835067078.1201171875,30,-10.0800000000,A01A3A,5,1553835054000
1553835067093.7500000000,30,-4.9800000000,A01A3A,5,1553835054000
1553835067109.3798828125,30,0.6100000000,A01A3A,5,1553835054000
1553835067125.0000000000,30,6.0300000000,A01A3A,5,1553835054000
1553835067140.6201171875,30,10.7500000000,A01A3A,5,1553835054000
1553835067156.2500000000,30,14.4300000000,A01A3A,5,1553835054000
1553835067171.8798828125,30,16.9500000000,A01A3A,5,1553835054000
1553835067187.5000000000,30,18.3400000000,A01A3A,5,1553835054000
1553835067203.1201171875,30,18.7100000000,A01A3A,5,1553835054000
1553835067218.7500000000,30,18.3100000000,A01A3A,5,1553835054000
1553835067234.3798828125,30,17.3800000000,A01A3A,5,1553835054000
1553835067250.0000000000,30,16.1900000000,A01A3A,5,1553835054000
1553835067265.6201171875,30,14.9800000000,A01A3A,5,1553835054000
1553835067281.2500000000,30,13.8500000000,A01A3A,5,1553835054000
1553835067296.8798828125,30,12.7800000000,A01A3A,5,1553835054000
1553835067312.5000000000,30,11.6700000000,A01A3A,5,1553835054000
1553835067328.1201171875,30,10.4400000000,A01A3A,5,1553835054000
1553835067343.7500000000,30,9.0500000000,A01A3A,5,1553835054000
1553835067359.3798828125,30,7.5600000000,A01A3A,5,1553835054000
1553835067375.0000000000,30,6.0600000000,A01A3A,5,1553835054000
1553835067390.6201171875,30,4.5900000000,A01A3A,5,1553835054000
1553835067406.2500000000,30,3.1100000000,A01A3A,5,1553835054000
1553835067421.8798828125,30,1.5100000000,A01A3A,5,1553835054000
1553835067437.5000000000,30,-0.3400000000,A01A3A,5,1553835054000
1553835067453.1201171875,30,-2.4900000000,A01A3A,5,1553835054000
1553835067468.7500000000,30,-4.9700000000,A01A3A,5,1553835054000
1553835067484.3798828125,30,-7.7500000000,A01A3A,5,1553835054000
1553835067500.0000000000,30,-10.7500000000,A01A3A,5,1553835054000
1553835067515.6201171875,30,-13.8600000000,A01A3A,5,1553835054000
1553835067531.2500000000,30,-16.8700000000,A01A3A,5,1553835054000
1553835067546.8798828125,30,-19.4700000000,A01A3A,5,1553835054000
1553835067562.5000000000,30,-21.2100000000,A01A3A,5,1553835054000
1553835067578.1201171875,30,-21.6200000000,A01A3A,5,1553835054000
1553835067593.7500000000,30,-20.3200000000,A01A3A,5,1553835054000
1553835067609.3798828125,30,-17.2500000000,A01A3A,5,1553835054000
1553835067625.0000000000,30,-12.6800000000,A01A3A,5,1553835054000
1553835067640.6201171875,30,-7.2900000000,A01A3A,5,1553835054000
1553835067656.2500000000,30,-1.9000000000,A01A3A,5,1553835054000
1553835067671.8798828125,30,2.7900000000,A01A3A,5,1553835054000
1553835067687.5000000000,30,6.4200000000,A01A3A,5,1553835054000
1553835067703.1201171875,30,9.0400000000,A01A3A,5,1553835054000
1553835067718.7500000000,30,11.0000000000,A01A3A,5,1553835054000
1553835067734.3798828125,30,12.6100000000,A01A3A,5,1553835054000
1553835067750.0000000000,30,14.0000000000,A01A3A,5,1553835054000
1553835067765.6201171875,30,14.9700000000,A01A3A,5,1553835054000
1553835067781.2500000000,30,15.2000000000,A01A3A,5,1553835054000
1553835067796.8798828125,30,14.4400000000,A01A3A,5,1553835054000
1553835067812.5000000000,30,12.7800000000,A01A3A,5,1553835054000
1553835067828.1201171875,30,10.6200000000,A01A3A,5,1553835054000
1553835067843.7500000000,30,8.5200000000,A01A3A,5,1553835054000
1553835067859.3798828125,30,6.8700000000,A01A3A,5,1553835054000
1553835067875.0000000000,30,5.8100000000,A01A3A,5,1553835054000
1553835067890.6201171875,30,5.1600000000,A01A3A,5,1553835054000
1553835067906.2500000000,30,4.5700000000,A01A3A,5,1553835054000
1553835067921.8798828125,30,3.7800000000,A01A3A,5,1553835054000
1553835067937.5000000000,30,2.6800000000,A01A3A,5,1553835054000
1553835067953.1201171875,30,1.3600000000,A01A3A,5,1553835054000
1553835067968.7500000000,30,-0.0100000000,A01A3A,5,1553835054000
1553835067984.3798828125,30,-1.2300000000,A01A3A,5,1553835054000
1553835068000.0000000000,30,-2.2600000000,A01A3A,5,1553835054000
1553835068015.6201171875,30,-3.2200000000,A01A3A,5,1553835054000
1553835068031.2500000000,30,-4.4100000000,A01A3A,5,1553835054000
1553835068046.8798828125,30,-6.1600000000,A01A3A,5,1553835054000
1553835068062.5000000000,30,-8.6900000000,A01A3A,5,1553835054000
1553835068078.1201171875,30,-11.8300000000,A01A3A,5,1553835054000
1553835068093.7500000000,30,-15.0600000000,A01A3A,5,1553835054000
1553835068109.3798828125,30,-17.5100000000,A01A3A,5,1553835054000
1553835068125.0000000000,30,-18.3300000000,A01A3A,5,1553835054000
1553835068140.6201171875,30,-16.9500000000,A01A3A,5,1553835054000
1553835068156.2500000000,30,-13.4000000000,A01A3A,5,1553835054000
1553835068171.8798828125,30,-8.3300000000,A01A3A,5,1553835054000
1553835068187.5000000000,30,-2.7200000000,A01A3A,5,1553835054000
1553835068203.1201171875,30,2.4700000000,A01A3A,5,1553835054000
1553835068218.7500000000,30,6.6300000000,A01A3A,5,1553835054000
1553835068234.3798828125,30,9.5800000000,A01A3A,5,1553835054000
1553835068250.0000000000,30,11.5200000000,A01A3A,5,1553835054000
1553835068265.6201171875,30,12.6900000000,A01A3A,5,1553835054000
1553835068281.2500000000,30,13.2900000000,A01A3A,5,1553835054000
1553835068296.8798828125,30,13.3400000000,A01A3A,5,1553835054000
1553835068312.5000000000,30,12.8100000000,A01A3A,5,1553835054000
1553835068328.1201171875,30,11.7900000000,A01A3A,5,1553835054000
1553835068343.7500000000,30,10.5300000000,A01A3A,5,1553835054000
1553835068359.3798828125,30,9.3600000000,A01A3A,5,1553835054000
1553835068375.0000000000,30,8.5500000000,A01A3A,5,1553835054000
1553835068390.6201171875,30,8.1700000000,A01A3A,5,1553835054000
1553835068406.2500000000,30,7.9800000000,A01A3A,5,1553835054000
1553835068421.8798828125,30,7.5900000000,A01A3A,5,1553835054000
1553835068437.5000000000,30,6.7100000000,A01A3A,5,1553835054000
1553835068453.1201171875,30,5.3600000000,A01A3A,5,1553835054000
1553835068468.7500000000,30,3.8100000000,A01A3A,5,1553835054000
1553835068484.3798828125,30,2.4600000000,A01A3A,5,1553835054000
1553835068500.0000000000,30,1.5800000000,A01A3A,5,1553835054000
1553835068515.6201171875,30,1.1000000000,A01A3A,5,1553835054000
1553835068531.2500000000,30,0.6200000000,A01A3A,5,1553835054000
1553835068546.8798828125,30,-0.3900000000,A01A3A,5,1553835054000
1553835068562.5000000000,30,-2.4000000000,A01A3A,5,1553835054000
1553835068578.1201171875,30,-5.5300000000,A01A3A,5,1553835054000
1553835068593.7500000000,30,-9.5200000000,A01A3A,5,1553835054000
1553835068609.3798828125,30,-13.7000000000,A01A3A,5,1553835054000
1553835068625.0000000000,30,-17.2900000000,A01A3A,5,1553835054000
1553835068640.6201171875,30,-19.5300000000,A01A3A,5,1553835054000
1553835068656.2500000000,30,-19.8900000000,A01A3A,5,1553835054000
1553835068671.8798828125,30,-18.2200000000,A01A3A,5,1553835054000
1553835068687.5000000000,30,-14.7200000000,A01A3A,5,1553835054000
1553835068703.1201171875,30,-9.9100000000,A01A3A,5,1553835054000
1553835068718.7500000000,30,-4.4900000000,A01A3A,5,1553835054000
1553835068734.3798828125,30,0.8300000000,A01A3A,5,1553835054000
1553835068750.0000000000,30,5.5100000000,A01A3A,5,1553835054000
1553835068765.6201171875,30,9.1500000000,A01A3A,5,1553835054000
1553835068781.2500000000,30,11.6100000000,A01A3A,5,1553835054000
1553835068796.8798828125,30,12.9400000000,A01A3A,5,1553835054000
1553835068812.5000000000,30,13.3300000000,A01A3A,5,1553835054000
1553835068828.1201171875,30,13.0600000000,A01A3A,5,1553835054000
1553835068843.7500000000,30,12.4900000000,A01A3A,5,1553835054000
1553835068859.3798828125,30,11.8900000000,A01A3A,5,1553835054000
1553835068875.0000000000,30,11.4100000000,A01A3A,5,1553835054000
1553835068890.6201171875,30,10.9900000000,A01A3A,5,1553835054000
1553835068906.2500000000,30,10.3800000000,A01A3A,5,1553835054000
1553835068921.8798828125,30,9.3300000000,A01A3A,5,1553835054000
1553835068937.5000000000,30,7.6900000000,A01A3A,5,1553835054000
1553835068953.1201171875,30,5.5100000000,A01A3A,5,1553835054000
1553835068968.7500000000,30,3.1200000000,A01A3A,5,1553835054000
1553835068984.3798828125,30,0.9300000000,A01A3A,5,1553835054000
1553835069000.0000000000,30,-0.6400000000,A01A3A,5,1553835054000
1553835069015.6201171875,30,-1.4200000000,A01A3A,5,1553835054000
1553835069031.2500000000,30,-1.5100000000,A01A3A,5,1553835054000
1553835069046.8798828125,30,-1.3000000000,A01A3A,5,1553835054000
1553835069062.5000000000,30,-1.3200000000,A01A3A,5,1553835054000
1553835069078.1201171875,30,-2.0500000000,A01A3A,5,1553835054000
1553835069093.7500000000,30,-3.7800000000,A01A3A,5,1553835054000
1553835069109.3798828125,30,-6.5400000000,A01A3A,5,1553835054000
1553835069125.0000000000,30,-10.0400000000,A01A3A,5,1553835054000
1553835069140.6201171875,30,-13.7500000000,A01A3A,5,1553835054000
1553835069156.2500000000,30,-16.9700000000,A01A3A,5,1553835054000
1553835069171.8798828125,30,-18.9600000000,A01A3A,5,1553835054000
1553835069187.5000000000,30,-19.1400000000,A01A3A,5,1553835054000
1553835069203.1201171875,30,-17.2400000000,A01A3A,5,1553835054000
1553835069218.7500000000,30,-13.4300000000,A01A3A,5,1553835054000
1553835069234.3798828125,30,-8.2800000000,A01A3A,5,1553835054000
1553835069250.0000000000,30,-2.6100000000,A01A3A,5,1553835054000
1553835069265.6201171875,30,2.7400000000,A01A3A,5,1553835054000
1553835069281.2500000000,30,7.1600000000,A01A3A,5,1553835054000
1553835069296.8798828125,30,10.4200000000,A01A3A,5,1553835054000
1553835069312.5000000000,30,12.6300000000,A01A3A,5,1553835054000
1553835069328.1201171875,30,14.0800000000,A01A3A,5,1553835054000
1553835069343.7500000000,30,15.0800000000,A01A3A,5,1553835054000
1553835069359.3798828125,30,15.8000000000,A01A3A,5,1553835054000
1553835069375.0000000000,30,16.2900000000,A01A3A,5,1553835054000
1553835069390.6201171875,30,16.5100000000,A01A3A,5,1553835054000
1553835069406.2500000000,30,16.4000000000,A01A3A,5,1553835054000
1553835069421.8798828125,30,15.9200000000,A01A3A,5,1553835054000
1553835069437.5000000000,30,15.0900000000,A01A3A,5,1553835054000
1553835069453.1201171875,30,13.9500000000,A01A3A,5,1553835054000
1553835069468.7500000000,30,12.5800000000,A01A3A,5,1553835054000
1553835069484.3798828125,30,11.0400000000,A01A3A,5,1553835054000
1553835069500.0000000000,30,9.4500000000,A01A3A,5,1553835054000
1553835069515.6201171875,30,7.9000000000,A01A3A,5,1553835054000
1553835069531.2500000000,30,6.4800000000,A01A3A,5,1553835054000
1553835069546.8798828125,30,5.2300000000,A01A3A,5,1553835054000
1553835069562.5000000000,30,4.1200000000,A01A3A,5,1553835054000
1553835069578.1201171875,30,3.0700000000,A01A3A,5,1553835054000
1553835069593.7500000000,30,1.9500000000,A01A3A,5,1553835054000
1553835069609.3798828125,30,0.5900000000,A01A3A,5,1553835054000
1553835069625.0000000000,30,-1.2100000000,A01A3A,5,1553835054000
1553835069640.6201171875,30,-3.6500000000,A01A3A,5,1553835054000
1553835069656.2500000000,30,-6.8700000000,A01A3A,5,1553835054000
1553835069671.8798828125,30,-10.8400000000,A01A3A,5,1553835054000
1553835069687.5000000000,30,-15.2100000000,A01A3A,5,1553835054000
1553835069703.1201171875,30,-19.3100000000,A01A3A,5,1553835054000
1553835069718.7500000000,30,-22.3200000000,A01A3A,5,1553835054000
1553835069734.3798828125,30,-23.4200000000,A01A3A,5,1553835054000
1553835069750.0000000000,30,-22.1800000000,A01A3A,5,1553835054000
1553835069765.6201171875,30,-18.6900000000,A01A3A,5,1553835054000
1553835069781.2500000000,30,-13.5800000000,A01A3A,5,1553835054000
1553835069796.8798828125,30,-7.8000000000,A01A3A,5,1553835054000
1553835069812.5000000000,30,-2.2400000000,A01A3A,5,1553835054000
1553835069828.1201171875,30,2.5400000000,A01A3A,5,1553835054000
1553835069843.7500000000,30,6.3800000000,A01A3A,5,1553835054000
1553835069859.3798828125,30,9.4500000000,A01A3A,5,1553835054000
1553835069875.0000000000,30,11.9900000000,A01A3A,5,1553835054000
1553835069890.6201171875,30,14.1800000000,A01A3A,5,1553835054000
1553835069906.2500000000,30,16.0000000000,A01A3A,5,1553835054000
1553835069921.8798828125,30,17.3000000000,A01A3A,5,1553835054000
1553835069937.5000000000,30,17.9300000000,A01A3A,5,1553835054000
1553835069953.1201171875,30,17.8800000000,A01A3A,5,1553835054000
1553835069968.7500000000,30,17.3200000000,A01A3A,5,1553835054000
1553835069984.3798828125,30,16.4700000000,A01A3A,5,1553835054000
1553835070000.0000000000,30,15.5100000000,A01A3A,5,1553835054000
1553835070015.6201171875,30,14.4700000000,A01A3A,5,1553835054000
1553835070031.2500000000,30,13.2300000000,A01A3A,5,1553835054000
1553835070046.8798828125,30,11.6100000000,A01A3A,5,1553835054000
1553835070062.5000000000,30,9.5600000000,A01A3A,5,1553835054000
1553835070078.1201171875,30,7.1900000000,A01A3A,5,1553835054000
1553835070093.7500000000,30,4.8200000000,A01A3A,5,1553835054000
1553835070109.3798828125,30,2.8000000000,A01A3A,5,1553835054000
1553835070125.0000000000,30,1.3700000000,A01A3A,5,1553835054000
1553835070140.6201171875,30,0.4500000000,A01A3A,5,1553835054000
1553835070156.2500000000,30,-0.2400000000,A01A3A,5,1553835054000
1553835070171.8798828125,30,-1.2000000000,A01A3A,5,1553835054000
1553835070187.5000000000,30,-2.8700000000,A01A3A,5,1553835054000
1553835070203.1201171875,30,-5.4800000000,A01A3A,5,1553835054000
1553835070218.7500000000,30,-9.0200000000,A01A3A,5,1553835054000
1553835070234.3798828125,30,-13.1600000000,A01A3A,5,1553835054000
1553835070250.0000000000,30,-17.3900000000,A01A3A,5,1553835054000
1553835070265.6201171875,30,-21.0400000000,A01A3A,5,1553835054000
1553835070281.2500000000,30,-23.4600000000,A01A3A,5,1553835054000
1553835070296.8798828125,30,-24.1900000000,A01A3A,5,1553835054000
1553835070312.5000000000,30,-22.9800000000,A01A3A,5,1553835054000
1553835070328.1201171875,30,-19.9800000000,A01A3A,5,1553835054000
1553835070343.7500000000,30,-15.5800000000,A01A3A,5,1553835054000
1553835070359.3798828125,30,-10.3900000000,A01A3A,5,1553835054000
1553835070375.0000000000,30,-4.9700000000,A01A3A,5,1553835054000
1553835070390.6201171875,30,0.2300000000,A01A3A,5,1553835054000
1553835070406.2500000000,30,4.9200000000,A01A3A,5,1553835054000
1553835070421.8798828125,30,8.9500000000,A01A3A,5,1553835054000
1553835070437.5000000000,30,12.2200000000,A01A3A,5,1553835054000
1553835070453.1201171875,30,14.6700000000,A01A3A,5,1553835054000
1553835070468.7500000000,30,16.2800000000,A01A3A,5,1553835054000
1553835070484.3798828125,30,17.1700000000,A01A3A,5,1553835054000
1553835070500.0000000000,30,17.4900000000,A01A3A,5,1553835054000
1553835070515.6201171875,30,17.4000000000,A01A3A,5,1553835054000
1553835070531.2500000000,30,17.0200000000,A01A3A,5,1553835054000
1553835070546.8798828125,30,16.3500000000,A01A3A,5,1553835054000
1553835070562.5000000000,30,15.3600000000,A01A3A,5,1553835054000
1553835070578.1201171875,30,14.0700000000,A01A3A,5,1553835054000
1553835070593.7500000000,30,12.6400000000,A01A3A,5,1553835054000
1553835070609.3798828125,30,11.2800000000,A01A3A,5,1553835054000
1553835070625.0000000000,30,10.2000000000,A01A3A,5,1553835054000
1553835070640.6201171875,30,9.4400000000,A01A3A,5,1553835054000
1553835070656.2500000000,30,8.8500000000,A01A3A,5,1553835054000
1553835070671.8798828125,30,8.1100000000,A01A3A,5,1553835054000
1553835070687.5000000000,30,6.9800000000,A01A3A,5,1553835054000
1553835070703.1201171875,30,5.3500000000,A01A3A,5,1553835054000
1553835070718.7500000000,30,3.3700000000,A01A3A,5,1553835054000
1553835070734.3798828125,30,1.3000000000,A01A3A,5,1553835054000
1553835070750.0000000000,30,-0.6300000000,A01A3A,5,1553835054000
1553835070765.6201171875,30,-2.3900000000,A01A3A,5,1553835054000
1553835070781.2500000000,30,-4.2000000000,A01A3A,5,1553835054000
1553835070796.8798828125,30,-6.4100000000,A01A3A,5,1553835054000
1553835070812.5000000000,30,-9.3400000000,A01A3A,5,1553835054000
1553835070828.1201171875,30,-13.0300000000,A01A3A,5,1553835054000
1553835070843.7500000000,30,-17.2300000000,A01A3A,5,1553835054000
1553835070859.3798828125,30,-21.3700000000,A01A3A,5,1553835054000
1553835070875.0000000000,30,-24.7600000000,A01A3A,5,1553835054000
1553835070890.6201171875,30,-26.7800000000,A01A3A,5,1553835054000
1553835070906.2500000000,30,-26.9900000000,A01A3A,5,1553835054000
1553835070921.8798828125,30,-25.2900000000,A01A3A,5,1553835054000
1553835070937.5000000000,30,-21.8500000000,A01A3A,5,1553835054000
1553835070953.1201171875,30,-17.0500000000,A01A3A,5,1553835054000
1553835070968.7500000000,30,-11.4500000000,A01A3A,5,1553835054000
1553835070984.3798828125,30,-5.6300000000,A01A3A,5,1553835054000
1553835071000.0000000000,30,-0.0800000000,A01A3A,5,1553835054000
1553835071015.6201171875,30,4.8100000000,A01A3A,5,1553835054000
1553835071031.2500000000,30,8.8500000000,A01A3A,5,1553835054000
1553835071046.8798828125,30,12.0400000000,A01A3A,5,1553835054000
1553835071062.5000000000,30,14.4300000000,A01A3A,5,1553835054000
1553835071078.1201171875,30,16.1700000000,A01A3A,5,1553835054000
1553835071093.7500000000,30,17.3400000000,A01A3A,5,1553835054000
1553835071109.3798828125,30,17.9900000000,A01A3A,5,1553835054000
1553835071125.0000000000,30,18.1000000000,A01A3A,5,1553835054000
1553835071140.6201171875,30,17.6200000000,A01A3A,5,1553835054000
1553835071156.2500000000,30,16.6100000000,A01A3A,5,1553835054000
1553835071171.8798828125,30,15.1900000000,A01A3A,5,1553835054000
1553835071187.5000000000,30,13.5700000000,A01A3A,5,1553835054000
1553835071203.1201171875,30,11.9600000000,A01A3A,5,1553835054000
1553835071218.7500000000,30,10.4900000000,A01A3A,5,1553835054000
1553835071234.3798828125,30,9.1300000000,A01A3A,5,1553835054000
1553835071250.0000000000,30,7.7300000000,A01A3A,5,1553835054000
1553835071265.6201171875,30,6.1000000000,A01A3A,5,1553835054000
1553835071281.2500000000,30,4.1500000000,A01A3A,5,1553835054000
1553835071296.8798828125,30,1.9700000000,A01A3A,5,1553835054000
1553835071312.5000000000,30,-0.1700000000,A01A3A,5,1553835054000
1553835071328.1201171875,30,-1.9300000000,A01A3A,5,1553835054000
1553835071343.7500000000,30,-3.0400000000,A01A3A,5,1553835054000
1553835071359.3798828125,30,-3.5100000000,A01A3A,5,1553835054000
1553835071375.0000000000,30,-3.6100000000,A01A3A,5,1553835054000
1553835071390.6201171875,30,-3.8500000000,A01A3A,5,1553835054000
1553835071406.2500000000,30,-4.7400000000,A01A3A,5,1553835054000
1553835071421.8798828125,30,-6.5800000000,A01A3A,5,1553835054000
1553835071437.5000000000,30,-9.3000000000,A01A3A,5,1553835054000
1553835071453.1201171875,30,-12.4900000000,A01A3A,5,1553835054000
1553835071468.7500000000,30,-15.5000000000,A01A3A,5,1553835054000
1553835071484.3798828125,30,-17.6900000000,A01A3A,5,1553835054000
1553835071500.0000000000,30,-18.6100000000,A01A3A,5,1553835054000
1553835071515.6201171875,30,-18.1100000000,A01A3A,5,1553835054000
1553835071531.2500000000,30,-16.2800000000,A01A3A,5,1553835054000
1553835071546.8798828125,30,-13.3100000000,A01A3A,5,1553835054000
1553835071562.5000000000,30,-9.4600000000,A01A3A,5,1553835054000
1553835071578.1201171875,30,-4.9900000000,A01A3A,5,1553835054000
1553835071593.7500000000,30,-0.1700000000,A01A3A,5,1553835054000
1553835071609.3798828125,30,4.5900000000,A01A3A,5,1553835054000
1553835071625.0000000000,30,8.9000000000,A01A3A,5,1553835054000
1553835071640.6201171875,30,12.3600000000,A01A3A,5,1553835054000
1553835071656.2500000000,30,14.6800000000,A01A3A,5,1553835054000
1553835071671.8798828125,30,15.8300000000,A01A3A,5,1553835054000
1553835071687.5000000000,30,15.9800000000,A01A3A,5,1553835054000
1553835071703.1201171875,30,15.5000000000,A01A3A,5,1553835054000
1553835071718.7500000000,30,14.7600000000,A01A3A,5,1553835054000
1553835071734.3798828125,30,14.0800000000,A01A3A,5,1553835054000
1553835071750.0000000000,30,13.5800000000,A01A3A,5,1553835054000
1553835071765.6201171875,30,13.1800000000,A01A3A,5,1553835054000
1553835071781.2500000000,30,12.7000000000,A01A3A,5,1553835054000
1553835071796.8798828125,30,11.9700000000,A01A3A,5,1553835054000
1553835071812.5000000000,30,10.9300000000,A01A3A,5,1553835054000
1553835071828.1201171875,30,9.6500000000,A01A3A,5,1553835054000
1553835071843.7500000000,30,8.3100000000,A01A3A,5,1553835054000
1553835071859.3798828125,30,7.0600000000,A01A3A,5,1553835054000
1553835071875.0000000000,30,5.9600000000,A01A3A,5,1553835054000
1553835071890.6201171875,30,4.9100000000,A01A3A,5,1553835054000
1553835071906.2500000000,30,3.7800000000,A01A3A,5,1553835054000
1553835071921.8798828125,30,2.4000000000,A01A3A,5,1553835054000
1553835071937.5000000000,30,0.6800000000,A01A3A,5,1553835054000
1553835071953.1201171875,30,-1.3700000000,A01A3A,5,1553835054000
1553835071968.7500000000,30,-3.7100000000,A01A3A,5,1553835054000
1553835071984.3798828125,30,-6.3100000000,A01A3A,5,1553835054000
1553835072000.0000000000,30,-9.1500000000,A01A3A,5,1553835054000
1553835072015.6201171875,30,-12.1700000000,A01A3A,5,1553835054000
1553835072031.2500000000,30,-15.2800000000,A01A3A,5,1553835054000
1553835072046.8798828125,30,-18.2000000000,A01A3A,5,1553835054000
1553835072062.5000000000,30,-20.5700000000,A01A3A,5,1553835054000
1553835072078.1201171875,30,-21.9000000000,A01A3A,5,1553835054000
1553835072093.7500000000,30,-21.7300000000,A01A3A,5,1553835054000
1553835072109.3798828125,30,-19.7700000000,A01A3A,5,1553835054000
1553835072125.0000000000,30,-16.0600000000,A01A3A,5,1553835054000
1553835072140.6201171875,30,-11.0200000000,A01A3A,5,1553835054000
1553835072156.2500000000,30,-5.4000000000,A01A3A,5,1553835054000
1553835072171.8798828125,30,-0.0600000000,A01A3A,5,1553835054000
1553835072187.5000000000,30,4.2800000000,A01A3A,5,1553835054000
1553835072203.1201171875,30,7.3000000000,A01A3A,5,1553835054000
1553835072218.7500000000,30,9.1000000000,A01A3A,5,1553835054000
1553835072234.3798828125,30,10.0500000000,A01A3A,5,1553835054000
1553835072250.0000000000,30,10.5300000000,A01A3A,5,1553835054000
1553835072265.6201171875,30,10.7500000000,A01A3A,5,1553835054000
1553835072281.2500000000,30,10.7100000000,A01A3A,5,1553835054000
1553835072296.8798828125,30,10.3300000000,A01A3A,5,1553835054000
1553835072312.5000000000,30,9.6300000000,A01A3A,5,1553835054000
1553835072328.1201171875,30,8.7200000000,A01A3A,5,1553835054000
1553835072343.7500000000,30,7.9100000000,A01A3A,5,1553835054000
1553835072359.3798828125,30,7.4100000000,A01A3A,5,1553835054000
1553835072375.0000000000,30,7.2600000000,A01A3A,5,1553835054000
1553835072390.6201171875,30,7.2800000000,A01A3A,5,1553835054000
1553835072406.2500000000,30,7.1800000000,A01A3A,5,1553835054000
1553835072421.8798828125,30,6.7100000000,A01A3A,5,1553835054000
1553835072437.5000000000,30,5.7500000000,A01A3A,5,1553835054000
1553835072453.1201171875,30,4.4300000000,A01A3A,5,1553835054000
1553835072468.7500000000,30,3.0000000000,A01A3A,5,1553835054000
1553835072484.3798828125,30,1.6800000000,A01A3A,5,1553835054000
1553835072500.0000000000,30,0.5100000000,A01A3A,5,1553835054000
1553835072515.6201171875,30,-0.7000000000,A01A3A,5,1553835054000
1553835072531.2500000000,30,-2.3400000000,A01A3A,5,1553835054000
1553835072546.8798828125,30,-4.7600000000,A01A3A,5,1553835054000
1553835072562.5000000000,30,-8.1500000000,A01A3A,5,1553835054000
1553835072578.1201171875,30,-12.3400000000,A01A3A,5,1553835054000
1553835072593.7500000000,30,-16.8400000000,A01A3A,5,1553835054000
1553835072609.3798828125,30,-20.9700000000,A01A3A,5,1553835054000
1553835072625.0000000000,30,-24.0200000000,A01A3A,5,1553835054000
1553835072640.6201171875,30,-25.5500000000,A01A3A,5,1553835054000
1553835072656.2500000000,30,-25.3500000000,A01A3A,5,1553835054000
1553835072671.8798828125,30,-23.4800000000,A01A3A,5,1553835054000
1553835072687.5000000000,30,-20.1500000000,A01A3A,5,1553835054000
1553835072703.1201171875,30,-15.6500000000,A01A3A,5,1553835054000
1553835072718.7500000000,30,-10.3100000000,A01A3A,5,1553835054000
1553835072734.3798828125,30,-4.5900000000,A01A3A,5,1553835054000
1553835072750.0000000000,30,0.9800000000,A01A3A,5,1553835054000
1553835072765.6201171875,30,5.8700000000,A01A3A,5,1553835054000
1553835072781.2500000000,30,9.6600000000,A01A3A,5,1553835054000
1553835072796.8798828125,30,12.1800000000,A01A3A,5,1553835054000
1553835072812.5000000000,30,13.6000000000,A01A3A,5,1553835054000
1553835072828.1201171875,30,14.2800000000,A01A3A,5,1553835054000
1553835072843.7500000000,30,14.6300000000,A01A3A,5,1553835054000
1553835072859.3798828125,30,14.9000000000,A01A3A,5,1553835054000
1553835072875.0000000000,30,15.1000000000,A01A3A,5,1553835054000
1553835072890.6201171875,30,15.1000000000,A01A3A,5,1553835054000
1553835072906.2500000000,30,14.7400000000,A01A3A,5,1553835054000
1553835072921.8798828125,30,13.9800000000,A01A3A,5,1553835054000
1553835072937.5000000000,30,12.9100000000,A01A3A,5,1553835054000
1553835072953.1201171875,30,11.6900000000,A01A3A,5,1553835054000
1553835072968.7500000000,30,10.4600000000,A01A3A,5,1553835054000
1553835072984.3798828125,30,9.2700000000,A01A3A,5,1553835054000
1553835073000.0000000000,30,8.0600000000,A01A3A,5,1553835054000
1553835073015.6201171875,30,6.7600000000,A01A3A,5,1553835054000
1553835073031.2500000000,30,5.3200000000,A01A3A,5,1553835054000
1553835073046.8798828125,30,3.8100000000,A01A3A,5,1553835054000
1553835073062.5000000000,30,2.3500000000,A01A3A,5,1553835054000
1553835073078.1201171875,30,1.0200000000,A01A3A,5,1553835054000
1553835073093.7500000000,30,-0.1700000000,A01A3A,5,1553835054000
1553835073109.3798828125,30,-1.3400000000,A01A3A,5,1553835054000
1553835073125.0000000000,30,-2.7300000000,A01A3A,5,1553835054000
1553835073140.6201171875,30,-4.6500000000,A01A3A,5,1553835054000
1553835073156.2500000000,30,-7.2700000000,A01A3A,5,1553835054000
1553835073171.8798828125,30,-10.6300000000,A01A3A,5,1553835054000
1553835073187.5000000000,30,-14.4100000000,A01A3A,5,1553835054000
1553835073203.1201171875,30,-18.0500000000,A01A3A,5,1553835054000
1553835073218.7500000000,30,-20.8500000000,A01A3A,5,1553835054000
1553835073234.3798828125,30,-22.2300000000,A01A3A,5,1553835054000
1553835073250.0000000000,30,-21.8600000000,A01A3A,5,1553835054000
1553835073265.6201171875,30,-19.7600000000,A01A3A,5,1553835054000
1553835073281.2500000000,30,-16.2500000000,A01A3A,5,1553835054000
1553835073296.8798828125,30,-11.8000000000,A01A3A,5,1553835054000
1553835073312.5000000000,30,-6.9100000000,A01A3A,5,1553835054000
1553835073328.1201171875,30,-1.9800000000,A01A3A,5,1553835054000
1553835073343.7500000000,30,2.6900000000,A01A3A,5,1553835054000
1553835073359.3798828125,30,6.9100000000,A01A3A,5,1553835054000
1553835073375.0000000000,30,10.5100000000,A01A3A,5,1553835054000
1553835073390.6201171875,30,13.3600000000,A01A3A,5,1553835054000
1553835073406.2500000000,30,15.3900000000,A01A3A,5,1553835054000
1553835073421.8798828125,30,16.6300000000,A01A3A,5,1553835054000
1553835073437.5000000000,30,17.1900000000,A01A3A,5,1553835054000
1553835073453.1201171875,30,17.3000000000,A01A3A,5,1553835054000
1553835073468.7500000000,30,17.2100000000,A01A3A,5,1553835054000
1553835073484.3798828125,30,17.0900000000,A01A3A,5,1553835054000
1553835073500.0000000000,30,16.9900000000,A01A3A,5,1553835054000
1553835073515.6201171875,30,16.8300000000,A01A3A,5,1553835054000
1553835073531.2500000000,30,16.4400000000,A01A3A,5,1553835054000
1553835073546.8798828125,30,15.7000000000,A01A3A,5,1553835054000
1553835073562.5000000000,30,14.5900000000,A01A3A,5,1553835054000
1553835073578.1201171875,30,13.1500000000,A01A3A,5,1553835054000
1553835073593.7500000000,30,11.5000000000,A01A3A,5,1553835054000
1553835073609.3798828125,30,9.7500000000,A01A3A,5,1553835054000
1553835073625.0000000000,30,8.0000000000,A01A3A,5,1553835054000
1553835073640.6201171875,30,6.3200000000,A01A3A,5,1553835054000
1553835073656.2500000000,30,4.8300000000,A01A3A,5,1553835054000
1553835073671.8798828125,30,3.6100000000,A01A3A,5,1553835054000
1553835073687.5000000000,30,2.7600000000,A01A3A,5,1553835054000
1553835073703.1201171875,30,2.2900000000,A01A3A,5,1553835054000
1553835073718.7500000000,30,2.0700000000,A01A3A,5,1553835054000
1553835073734.3798828125,30,1.8100000000,A01A3A,5,1553835054000
1553835073750.0000000000,30,1.1700000000,A01A3A,5,1553835054000
1553835073765.6201171875,30,-0.2300000000,A01A3A,5,1553835054000
1553835073781.2500000000,30,-2.4900000000,A01A3A,5,1553835054000
1553835073796.8798828125,30,-5.4200000000,A01A3A,5,1553835054000
1553835073812.5000000000,30,-8.3800000000,A01A3A,5,1553835054000
1553835073828.1201171875,30,-10.4600000000,A01A3A,5,1553835054000
1553835073843.7500000000,30,-10.7800000000,A01A3A,5,1553835054000
1553835073859.3798828125,30,-8.8700000000,A01A3A,5,1553835054000
1553835073875.0000000000,30,-4.8600000000,A01A3A,5,1553835054000
1553835073890.6201171875,30,0.4800000000,A01A3A,5,1553835054000
1553835073906.2500000000,30,6.1400000000,A01A3A,5,1553835054000
1553835073921.8798828125,30,11.1900000000,A01A3A,5,1553835054000
1553835073937.5000000000,30,15.1900000000,A01A3A,5,1553835054000
1553835073953.1201171875,30,18.1800000000,A01A3A,5,1553835054000
1553835073968.7500000000,30,20.5300000000,A01A3A,5,1553835054000
1553835073984.3798828125,30,22.6200000000,A01A3A,5,1553835054000
1553835074000.0000000000,30,24.5900000000,A01A3A,5,1553835054000
1553835074015.6201171875,30,26.3500000000,A01A3A,5,1553835054000
1553835074031.2500000000,30,27.7000000000,A01A3A,5,1553835054000
1553835074046.8798828125,30,28.4500000000,A01A3A,5,1553835054000
1553835074062.5000000000,30,28.5400000000,A01A3A,5,1553835054000
1553835074078.1201171875,30,28.0100000000,A01A3A,5,1553835054000
1553835074093.7500000000,30,26.8600000000,A01A3A,5,1553835054000
1553835074109.3798828125,30,25.1000000000,A01A3A,5,1553835054000
1553835074125.0000000000,30,22.8500000000,A01A3A,5,1553835054000
1553835074140.6201171875,30,20.2800000000,A01A3A,5,1553835054000
1553835074156.2500000000,30,17.7300000000,A01A3A,5,1553835054000
1553835074171.8798828125,30,15.4800000000,A01A3A,5,1553835054000
1553835074187.5000000000,30,13.6000000000,A01A3A,5,1553835054000
1553835074203.1201171875,30,11.9100000000,A01A3A,5,1553835054000
1553835074218.7500000000,30,9.9900000000,A01A3A,5,1553835054000
1553835074234.3798828125,30,7.3900000000,A01A3A,5,1553835054000
1553835074250.0000000000,30,3.9300000000,A01A3A,5,1553835054000
1553835074265.6201171875,30,-0.2700000000,A01A3A,5,1553835054000
1553835074281.2500000000,30,-4.7900000000,A01A3A,5,1553835054000
1553835074296.8798828125,30,-9.1400000000,A01A3A,5,1553835054000
1553835074312.5000000000,30,-13.0000000000,A01A3A,5,1553835054000
1553835074328.1201171875,30,-16.4000000000,A01A3A,5,1553835054000
1553835074343.7500000000,30,-19.6900000000,A01A3A,5,1553835054000
1553835074359.3798828125,30,-23.3500000000,A01A3A,5,1553835054000
1553835074375.0000000000,30,-27.7100000000,A01A3A,5,1553835054000
1553835074390.6201171875,30,-32.7700000000,A01A3A,5,1553835054000
1553835074406.2500000000,30,-37.9800000000,A01A3A,5,1553835054000
1553835074421.8798828125,30,-42.4600000000,A01A3A,5,1553835054000
1553835074437.5000000000,30,-45.1800000000,A01A3A,5,1553835054000
1553835074453.1201171875,30,-45.3800000000,A01A3A,5,1553835054000
1553835074468.7500000000,30,-42.7700000000,A01A3A,5,1553835054000
1553835074484.3798828125,30,-37.6900000000,A01A3A,5,1553835054000
1553835074500.0000000000,30,-30.9900000000,A01A3A,5,1553835054000
1553835074515.6201171875,30,-23.7100000000,A01A3A,5,1553835054000
1553835074531.2500000000,30,-16.7900000000,A01A3A,5,1553835054000
1553835074546.8798828125,30,-10.8500000000,A01A3A,5,1553835054000
1553835074562.5000000000,30,-6.1400000000,A01A3A,5,1553835054000
1553835074578.1201171875,30,-2.5200000000,A01A3A,5,1553835054000
1553835074593.7500000000,30,0.2500000000,A01A3A,5,1553835054000
1553835074609.3798828125,30,2.4700000000,A01A3A,5,1553835054000
1553835074625.0000000000,30,4.2900000000,A01A3A,5,1553835054000
1553835074640.6201171875,30,5.6600000000,A01A3A,5,1553835054000
1553835074656.2500000000,30,6.5100000000,A01A3A,5,1553835054000
1553835074671.8798828125,30,6.7600000000,A01A3A,5,1553835054000
1553835074687.5000000000,30,6.4900000000,A01A3A,5,1553835054000
1553835074703.1201171875,30,5.8700000000,A01A3A,5,1553835054000
1553835074718.7500000000,30,5.1100000000,A01A3A,5,1553835054000
1553835074734.3798828125,30,4.3000000000,A01A3A,5,1553835054000
1553835074750.0000000000,30,3.3800000000,A01A3A,5,1553835054000
1553835074765.6201171875,30,2.1600000000,A01A3A,5,1553835054000
1553835074781.2500000000,30,0.4400000000,A01A3A,5,1553835054000
1553835074796.8798828125,30,-1.7500000000,A01A3A,5,1553835054000
1553835074812.5000000000,30,-4.1500000000,A01A3A,5,1553835054000
1553835074828.1201171875,30,-6.3200000000,A01A3A,5,1553835054000
1553835074843.7500000000,30,-7.9200000000,A01A3A,5,1553835054000
1553835074859.3798828125,30,-8.9000000000,A01A3A,5,1553835054000
1553835074875.0000000000,30,-9.6000000000,A01A3A,5,1553835054000
1553835074890.6201171875,30,-10.5800000000,A01A3A,5,1553835054000
1553835074906.2500000000,30,-12.3900000000,A01A3A,5,1553835054000
1553835074921.8798828125,30,-15.2200000000,A01A3A,5,1553835054000
1553835074937.5000000000,30,-18.7900000000,A01A3A,5,1553835054000
1553835074953.1201171875,30,-22.4500000000,A01A3A,5,1553835054000
1553835074968.7500000000,30,-25.4100000000,A01A3A,5,1553835054000
1553835074984.3798828125,30,-26.9700000000,A01A3A,5,1553835054000
1553835075000.0000000000,30,-26.7300000000,A01A3A,5,1553835054000
1553835075000.0000000000,30,0E-10,A01BBE,5,1553835075000
1553835075015.6201171875,30,-24.5600000000,A01A3A,5,1553835054000
1553835075015.6201171875,30,0E-10,A01BBE,5,1553835075000
1553835075031.2500000000,30,-20.5800000000,A01A3A,5,1553835054000
1553835075031.2500000000,30,0E-10,A01BBE,5,1553835075000
1553835075046.8798828125,30,-15.0800000000,A01A3A,5,1553835054000
1553835075046.8798828125,30,0E-10,A01BBE,5,1553835075000
1553835075062.5000000000,30,-8.5400000000,A01A3A,5,1553835054000
1553835075062.5000000000,30,0E-10,A01BBE,5,1553835075000
1553835075078.1201171875,30,-1.5400000000,A01A3A,5,1553835054000
1553835075078.1201171875,30,0E-10,A01BBE,5,1553835075000
1553835075093.7500000000,30,5.2000000000,A01A3A,5,1553835054000
1553835075093.7500000000,30,0E-10,A01BBE,5,1553835075000
1553835075109.3798828125,30,11.0000000000,A01A3A,5,1553835054000
1553835075109.3798828125,30,0E-10,A01BBE,5,1553835075000
1553835075125.0000000000,30,15.3300000000,A01A3A,5,1553835054000
1553835075125.0000000000,30,0E-10,A01BBE,5,1553835075000
1553835075140.6201171875,30,17.9500000000,A01A3A,5,1553835054000
1553835075140.6201171875,30,0E-10,A01BBE,5,1553835075000
1553835075156.2500000000,30,19.0000000000,A01A3A,5,1553835054000
1553835075156.2500000000,30,0E-10,A01BBE,5,1553835075000
1553835075171.8798828125,30,18.8200000000,A01A3A,5,1553835054000
1553835075171.8798828125,30,0.0100000000,A01BBE,5,1553835075000
1553835075187.5000000000,30,17.9200000000,A01A3A,5,1553835054000
1553835075187.5000000000,30,0.0100000000,A01BBE,5,1553835075000
1553835075203.1201171875,30,16.7100000000,A01A3A,5,1553835054000
1553835075203.1201171875,30,0E-10,A01BBE,5,1553835075000
1553835075218.7500000000,30,15.4700000000,A01A3A,5,1553835054000
1553835075218.7500000000,30,-0.0300000000,A01BBE,5,1553835075000
1553835075234.3798828125,30,14.2700000000,A01A3A,5,1553835054000
1553835075234.3798828125,30,-0.0500000000,A01BBE,5,1553835075000
1553835075250.0000000000,30,13.0200000000,A01A3A,5,1553835054000
1553835075250.0000000000,30,-0.0500000000,A01BBE,5,1553835075000
1553835075265.6201171875,30,11.5700000000,A01A3A,5,1553835054000
1553835075265.6201171875,30,0E-10,A01BBE,5,1553835075000
1553835075281.2500000000,30,9.8000000000,A01A3A,5,1553835054000
1553835075281.2500000000,30,0.1300000000,A01BBE,5,1553835075000
1553835075296.8798828125,30,7.7200000000,A01A3A,5,1553835054000
1553835075296.8798828125,30,0.3600000000,A01BBE,5,1553835075000
1553835075312.5000000000,30,5.4000000000,A01A3A,5,1553835054000
1553835075312.5000000000,30,0.6600000000,A01BBE,5,1553835075000
1553835075328.1201171875,30,3.0600000000,A01A3A,5,1553835054000
1553835075328.1201171875,30,1.0100000000,A01BBE,5,1553835075000
1553835075343.7500000000,30,0.8800000000,A01A3A,5,1553835054000
1553835075343.7500000000,30,1.3700000000,A01BBE,5,1553835075000
1553835075359.3798828125,30,-0.9400000000,A01A3A,5,1553835054000
1553835075359.3798828125,30,1.7200000000,A01BBE,5,1553835075000
1553835075375.0000000000,30,-2.3400000000,A01A3A,5,1553835054000
1553835075375.0000000000,30,2.0600000000,A01BBE,5,1553835075000
1553835075390.6201171875,30,-3.2200000000,A01A3A,5,1553835054000
1553835075390.6201171875,30,2.4000000000,A01BBE,5,1553835075000
1553835075406.2500000000,30,-3.6200000000,A01A3A,5,1553835054000
1553835075406.2500000000,30,2.7900000000,A01BBE,5,1553835075000
1553835075421.8798828125,30,-3.6100000000,A01A3A,5,1553835054000
1553835075421.8798828125,30,3.2400000000,A01BBE,5,1553835075000
1553835075437.5000000000,30,-3.4000000000,A01A3A,5,1553835054000
1553835075437.5000000000,30,3.8000000000,A01BBE,5,1553835075000
1553835075453.1201171875,30,-3.3500000000,A01A3A,5,1553835054000
1553835075453.1201171875,30,4.4200000000,A01BBE,5,1553835075000
1553835075468.7500000000,30,-3.9300000000,A01A3A,5,1553835054000
1553835075468.7500000000,30,5.0600000000,A01BBE,5,1553835075000
1553835075484.3798828125,30,-5.5800000000,A01A3A,5,1553835054000
1553835075484.3798828125,30,5.6600000000,A01BBE,5,1553835075000
1553835075500.0000000000,30,-8.4800000000,A01A3A,5,1553835054000
1553835075500.0000000000,30,6.2000000000,A01BBE,5,1553835075000
1553835075515.6201171875,30,-12.3900000000,A01A3A,5,1553835054000
1553835075515.6201171875,30,6.6800000000,A01BBE,5,1553835075000
1553835075531.2500000000,30,-16.6300000000,A01A3A,5,1553835054000
1553835075531.2500000000,30,7.1500000000,A01BBE,5,1553835075000
1553835075546.8798828125,30,-20.1800000000,A01A3A,5,1553835054000
1553835075546.8798828125,30,7.6800000000,A01BBE,5,1553835075000
1553835075562.5000000000,30,-22.0500000000,A01A3A,5,1553835054000
1553835075562.5000000000,30,8.3100000000,A01BBE,5,1553835075000
1553835075578.1201171875,30,-21.5900000000,A01A3A,5,1553835054000
1553835075578.1201171875,30,9.1400000000,A01BBE,5,1553835075000
1553835075593.7500000000,30,-18.7200000000,A01A3A,5,1553835054000
1553835075593.7500000000,30,10.0900000000,A01BBE,5,1553835075000
1553835075609.3798828125,30,-13.9500000000,A01A3A,5,1553835054000
1553835075609.3798828125,30,11.0400000000,A01BBE,5,1553835075000
1553835075625.0000000000,30,-8.1300000000,A01A3A,5,1553835054000
1553835075625.0000000000,30,11.8800000000,A01BBE,5,1553835075000
1553835075640.6201171875,30,-2.2200000000,A01A3A,5,1553835054000
1553835075640.6201171875,30,12.5600000000,A01BBE,5,1553835075000
1553835075656.2500000000,30,3.0500000000,A01A3A,5,1553835054000
1553835075656.2500000000,30,13.1400000000,A01BBE,5,1553835075000
1553835075671.8798828125,30,7.2500000000,A01A3A,5,1553835054000
1553835075671.8798828125,30,13.7600000000,A01BBE,5,1553835075000
1553835075687.5000000000,30,10.3100000000,A01A3A,5,1553835054000
1553835075687.5000000000,30,14.6500000000,A01BBE,5,1553835075000
1553835075703.1201171875,30,12.2800000000,A01A3A,5,1553835054000
1553835075703.1201171875,30,15.9600000000,A01BBE,5,1553835075000
1553835075718.7500000000,30,13.2900000000,A01A3A,5,1553835054000
1553835075718.7500000000,30,17.9100000000,A01BBE,5,1553835075000
1553835075734.3798828125,30,13.4300000000,A01A3A,5,1553835054000
1553835075734.3798828125,30,20.3200000000,A01BBE,5,1553835075000
1553835075750.0000000000,30,12.8200000000,A01A3A,5,1553835054000
1553835075750.0000000000,30,22.9000000000,A01BBE,5,1553835075000
1553835075765.6201171875,30,11.6300000000,A01A3A,5,1553835054000
1553835075765.6201171875,30,25.3800000000,A01BBE,5,1553835075000
1553835075781.2500000000,30,10.1700000000,A01A3A,5,1553835054000
1553835075781.2500000000,30,27.5800000000,A01BBE,5,1553835075000
1553835075796.8798828125,30,8.8200000000,A01A3A,5,1553835054000
1553835075796.8798828125,30,29.5700000000,A01BBE,5,1553835075000
1553835075812.5000000000,30,7.8600000000,A01A3A,5,1553835054000
1553835075812.5000000000,30,31.6800000000,A01BBE,5,1553835075000
1553835075828.1201171875,30,7.4200000000,A01A3A,5,1553835054000
1553835075828.1201171875,30,34.3200000000,A01BBE,5,1553835075000
1553835075843.7500000000,30,7.3200000000,A01A3A,5,1553835054000
1553835075843.7500000000,30,37.8100000000,A01BBE,5,1553835075000
1553835075859.3798828125,30,7.2300000000,A01A3A,5,1553835054000
1553835075859.3798828125,30,42.5400000000,A01BBE,5,1553835075000
1553835075875.0000000000,30,6.7900000000,A01A3A,5,1553835054000
1553835075875.0000000000,30,48.1500000000,A01BBE,5,1553835075000
1553835075890.6201171875,30,5.8400000000,A01A3A,5,1553835054000
1553835075890.6201171875,30,54.1000000000,A01BBE,5,1553835075000
1553835075906.2500000000,30,4.4300000000,A01A3A,5,1553835054000
1553835075906.2500000000,30,59.8300000000,A01BBE,5,1553835075000
1553835075921.8798828125,30,2.8600000000,A01A3A,5,1553835054000
1553835075921.8798828125,30,64.9700000000,A01BBE,5,1553835075000
1553835075937.5000000000,30,1.4500000000,A01A3A,5,1553835054000
1553835075937.5000000000,30,69.5800000000,A01BBE,5,1553835075000
1553835075953.1201171875,30,0.3300000000,A01A3A,5,1553835054000
1553835075953.1201171875,30,74.1400000000,A01BBE,5,1553835075000
1553835075968.7500000000,30,-0.6000000000,A01A3A,5,1553835054000
1553835075968.7500000000,30,79.3400000000,A01BBE,5,1553835075000
1553835075984.3798828125,30,-1.6500000000,A01A3A,5,1553835054000
1553835075984.3798828125,30,85.7100000000,A01BBE,5,1553835075000
1553835076000.0000000000,30,-3.2400000000,A01A3A,5,1553835054000
1553835076000.0000000000,30,93.7600000000,A01BBE,5,1553835075000
1553835076015.6201171875,30,-5.6800000000,A01A3A,5,1553835054000
1553835076015.6201171875,30,103.0000000000,A01BBE,5,1553835075000
1553835076031.2500000000,30,-8.9700000000,A01A3A,5,1553835054000
1553835076031.2500000000,30,112.6200000000,A01BBE,5,1553835075000
1553835076046.8798828125,30,-12.8600000000,A01A3A,5,1553835054000
1553835076046.8798828125,30,121.7300000000,A01BBE,5,1553835075000
1553835076062.5000000000,30,-16.8900000000,A01A3A,5,1553835054000
1553835076062.5000000000,30,129.7700000000,A01BBE,5,1553835075000
1553835076078.1201171875,30,-20.4500000000,A01A3A,5,1553835054000
1553835076078.1201171875,30,136.7500000000,A01BBE,5,1553835075000
1553835076093.7500000000,30,-22.9900000000,A01A3A,5,1553835054000
1553835076093.7500000000,30,143.3000000000,A01BBE,5,1553835075000
1553835076109.3798828125,30,-24.0400000000,A01A3A,5,1553835054000
1553835076109.3798828125,30,150.7500000000,A01BBE,5,1553835075000
1553835076125.0000000000,30,-23.2900000000,A01A3A,5,1553835054000
1553835076125.0000000000,30,157.7700000000,A01BBE,5,1553835075000
1553835076140.6201171875,30,-20.6800000000,A01A3A,5,1553835054000
1553835076140.6201171875,30,166.6400000000,A01BBE,5,1553835075000
1553835076156.2500000000,30,-16.4500000000,A01A3A,5,1553835054000
1553835076156.2500000000,30,177.9500000000,A01BBE,5,1553835075000
1553835076171.8798828125,30,-11.0500000000,A01A3A,5,1553835054000
1553835076171.8798828125,30,191.7900000000,A01BBE,5,1553835075000
1553835076187.5000000000,30,-5.1500000000,A01A3A,5,1553835054000
1553835076187.5000000000,30,206.9700000000,A01BBE,5,1553835075000
1553835076203.1201171875,30,0.5600000000,A01A3A,5,1553835054000
1553835076203.1201171875,30,220.5700000000,A01BBE,5,1553835075000
1553835076218.7500000000,30,5.4900000000,A01A3A,5,1553835054000
1553835076218.7500000000,30,228.2500000000,A01BBE,5,1553835075000
1553835076234.3798828125,30,9.2400000000,A01A3A,5,1553835054000
1553835076234.3798828125,30,225.3600000000,A01BBE,5,1553835075000
1553835076250.0000000000,30,11.6900000000,A01A3A,5,1553835054000
1553835076250.0000000000,30,208.5300000000,A01BBE,5,1553835075000
1553835076265.6201171875,30,12.9300000000,A01A3A,5,1553835054000
1553835076265.6201171875,30,176.8700000000,A01BBE,5,1553835075000
1553835076281.2500000000,30,13.1500000000,A01A3A,5,1553835054000
1553835076281.2500000000,30,132.7600000000,A01BBE,5,1553835075000
1553835076296.8798828125,30,12.6100000000,A01A3A,5,1553835054000
1553835076296.8798828125,30,80.0500000000,A01BBE,5,1553835075000
1553835076312.5000000000,30,11.5900000000,A01A3A,5,1553835054000
1553835076312.5000000000,30,23.0700000000,A01BBE,5,1553835075000
1553835076328.1201171875,30,10.3400000000,A01A3A,5,1553835054000
1553835076328.1201171875,30,-34.9400000000,A01BBE,5,1553835075000
1553835076343.7500000000,30,9.1300000000,A01A3A,5,1553835054000
1553835076343.7500000000,30,-92.4400000000,A01BBE,5,1553835075000
1553835076359.3798828125,30,8.1700000000,A01A3A,5,1553835054000
1553835076359.3798828125,30,-149.1600000000,A01BBE,5,1553835075000
1553835076375.0000000000,30,7.5600000000,A01A3A,5,1553835054000
1553835076375.0000000000,30,-205.2300000000,A01BBE,5,1553835075000
1553835076390.6201171875,30,7.2600000000,A01A3A,5,1553835054000
1553835076390.6201171875,30,-260.3700000000,A01BBE,5,1553835075000
1553835076406.2500000000,30,7.1400000000,A01A3A,5,1553835054000
1553835076406.2500000000,30,-313.7400000000,A01BBE,5,1553835075000
1553835076421.8798828125,30,7.0400000000,A01A3A,5,1553835054000
1553835076421.8798828125,30,-363.8700000000,A01BBE,5,1553835075000
1553835076437.5000000000,30,6.8500000000,A01A3A,5,1553835054000
1553835076437.5000000000,30,-409.8300000000,A01BBE,5,1553835075000
1553835076453.1201171875,30,6.5000000000,A01A3A,5,1553835054000
1553835076453.1201171875,30,-450.9100000000,A01BBE,5,1553835075000
1553835076468.7500000000,30,5.9500000000,A01A3A,5,1553835054000
1553835076468.7500000000,30,-486.5000000000,A01BBE,5,1553835075000
1553835076484.3798828125,30,5.1500000000,A01A3A,5,1553835054000
1553835076484.3798828125,30,-515.7400000000,A01BBE,5,1553835075000
1553835076500.0000000000,30,4.0800000000,A01A3A,5,1553835054000
1553835076500.0000000000,30,-537.2300000000,A01BBE,5,1553835075000
1553835076515.6201171875,30,2.7400000000,A01A3A,5,1553835054000
1553835076515.6201171875,30,-549.2200000000,A01BBE,5,1553835075000
1553835076531.2500000000,30,1.1800000000,A01A3A,5,1553835054000
1553835076531.2500000000,30,-549.9600000000,A01BBE,5,1553835075000
1553835076546.8798828125,30,-0.5200000000,A01A3A,5,1553835054000
1553835076546.8798828125,30,-538.3700000000,A01BBE,5,1553835075000
1553835076562.5000000000,30,-2.2900000000,A01A3A,5,1553835054000
1553835076562.5000000000,30,-514.2100000000,A01BBE,5,1553835075000
1553835076578.1201171875,30,-4.1700000000,A01A3A,5,1553835054000
1553835076578.1201171875,30,-478.6700000000,A01BBE,5,1553835075000
1553835076593.7500000000,30,-6.3300000000,A01A3A,5,1553835054000
1553835076593.7500000000,30,-433.8800000000,A01BBE,5,1553835075000
1553835076609.3798828125,30,-8.9700000000,A01A3A,5,1553835054000
1553835076609.3798828125,30,-382.4500000000,A01BBE,5,1553835075000
1553835076625.0000000000,30,-12.1700000000,A01A3A,5,1553835054000
1553835076625.0000000000,30,-327.0200000000,A01BBE,5,1553835075000
1553835076640.6201171875,30,-15.7100000000,A01A3A,5,1553835054000
1553835076640.6201171875,30,-269.8400000000,A01BBE,5,1553835075000
1553835076656.2500000000,30,-19.0400000000,A01A3A,5,1553835054000
1553835076656.2500000000,30,-212.6300000000,A01BBE,5,1553835075000
1553835076671.8798828125,30,-21.3800000000,A01A3A,5,1553835054000
1553835076671.8798828125,30,-156.6600000000,A01BBE,5,1553835075000
1553835076687.5000000000,30,-21.9400000000,A01A3A,5,1553835054000
1553835076687.5000000000,30,-102.9500000000,A01BBE,5,1553835075000
1553835076703.1201171875,30,-20.2900000000,A01A3A,5,1553835054000
1553835076703.1201171875,30,-52.3700000000,A01BBE,5,1553835075000
1553835076718.7500000000,30,-16.4700000000,A01A3A,5,1553835054000
1553835076718.7500000000,30,-5.9000000000,A01BBE,5,1553835075000
1553835076734.3798828125,30,-11.0100000000,A01A3A,5,1553835054000
1553835076734.3798828125,30,35.5800000000,A01BBE,5,1553835075000
1553835076750.0000000000,30,-4.7900000000,A01A3A,5,1553835054000
1553835076750.0000000000,30,71.4300000000,A01BBE,5,1553835075000
1553835076765.6201171875,30,1.3300000000,A01A3A,5,1553835054000
1553835076765.6201171875,30,101.3500000000,A01BBE,5,1553835075000
1553835076781.2500000000,30,6.6000000000,A01A3A,5,1553835054000
1553835076781.2500000000,30,125.5000000000,A01BBE,5,1553835075000
1553835076796.8798828125,30,10.6400000000,A01A3A,5,1553835054000
1553835076796.8798828125,30,144.3800000000,A01BBE,5,1553835075000
1553835076812.5000000000,30,13.3700000000,A01A3A,5,1553835054000
1553835076812.5000000000,30,158.6900000000,A01BBE,5,1553835075000
1553835076828.1201171875,30,14.9000000000,A01A3A,5,1553835054000
1553835076828.1201171875,30,169.1500000000,A01BBE,5,1553835075000
1553835076843.7500000000,30,15.4300000000,A01A3A,5,1553835054000
1553835076843.7500000000,30,176.3700000000,A01BBE,5,1553835075000
1553835076859.3798828125,30,15.0900000000,A01A3A,5,1553835054000
1553835076859.3798828125,30,180.7500000000,A01BBE,5,1553835075000
1553835076875.0000000000,30,13.9800000000,A01A3A,5,1553835054000
1553835076875.0000000000,30,182.5700000000,A01BBE,5,1553835075000
1553835076890.6201171875,30,12.3000000000,A01A3A,5,1553835054000
1553835076890.6201171875,30,182.0700000000,A01BBE,5,1553835075000
1553835076906.2500000000,30,10.3200000000,A01A3A,5,1553835054000
1553835076906.2500000000,30,179.5100000000,A01BBE,5,1553835075000
1553835076921.8798828125,30,8.4800000000,A01A3A,5,1553835054000
1553835076921.8798828125,30,175.2300000000,A01BBE,5,1553835075000
1553835076937.5000000000,30,7.1500000000,A01A3A,5,1553835054000
1553835076937.5000000000,30,169.6500000000,A01BBE,5,1553835075000
1553835076953.1201171875,30,6.5100000000,A01A3A,5,1553835054000
1553835076953.1201171875,30,163.1800000000,A01BBE,5,1553835075000
1553835076968.7500000000,30,6.4300000000,A01A3A,5,1553835054000
1553835076968.7500000000,30,156.1500000000,A01BBE,5,1553835075000
1553835076984.3798828125,30,6.4700000000,A01A3A,5,1553835054000
1553835076984.3798828125,30,148.8100000000,A01BBE,5,1553835075000
1553835077000.0000000000,30,6.1800000000,A01A3A,5,1553835054000
1553835077000.0000000000,30,141.3000000000,A01BBE,5,1553835075000
1553835077015.6201171875,30,5.2800000000,A01A3A,5,1553835054000
1553835077015.6201171875,30,133.6900000000,A01BBE,5,1553835075000
1553835077031.2500000000,30,3.8500000000,A01A3A,5,1553835054000
1553835077031.2500000000,30,126.0200000000,A01BBE,5,1553835075000
1553835077046.8798828125,30,2.2100000000,A01A3A,5,1553835054000
1553835077046.8798828125,30,118.3300000000,A01BBE,5,1553835075000
1553835077062.5000000000,30,0.7800000000,A01A3A,5,1553835054000
1553835077062.5000000000,30,110.6900000000,A01BBE,5,1553835075000
1553835077078.1201171875,30,-0.2000000000,A01A3A,5,1553835054000
1553835077078.1201171875,30,103.1600000000,A01BBE,5,1553835075000
1553835077093.7500000000,30,-0.8100000000,A01A3A,5,1553835054000
1553835077093.7500000000,30,95.8000000000,A01BBE,5,1553835075000
1553835077109.3798828125,30,-1.3900000000,A01A3A,5,1553835054000
1553835077109.3798828125,30,88.6800000000,A01BBE,5,1553835075000
1553835077125.0000000000,30,-2.3100000000,A01A3A,5,1553835054000
1553835077125.0000000000,30,81.8300000000,A01BBE,5,1553835075000
1553835077140.6201171875,30,-3.8500000000,A01A3A,5,1553835054000
1553835077140.6201171875,30,75.2500000000,A01BBE,5,1553835075000
1553835077156.2500000000,30,-6.0400000000,A01A3A,5,1553835054000
1553835077156.2500000000,30,68.9500000000,A01BBE,5,1553835075000
1553835077171.8798828125,30,-8.8000000000,A01A3A,5,1553835054000
1553835077171.8798828125,30,62.9500000000,A01BBE,5,1553835075000
1553835077187.5000000000,30,-11.9000000000,A01A3A,5,1553835054000
1553835077187.5000000000,30,57.2500000000,A01BBE,5,1553835075000
1553835077203.1201171875,30,-15.0200000000,A01A3A,5,1553835054000
1553835077203.1201171875,30,51.8600000000,A01BBE,5,1553835075000
1553835077218.7500000000,30,-17.7300000000,A01A3A,5,1553835054000
1553835077218.7500000000,30,46.7800000000,A01BBE,5,1553835075000
1553835077234.3798828125,30,-19.5200000000,A01A3A,5,1553835054000
1553835077234.3798828125,30,42.0300000000,A01BBE,5,1553835075000
1553835077250.0000000000,30,-19.8100000000,A01A3A,5,1553835054000
1553835077250.0000000000,30,37.5900000000,A01BBE,5,1553835075000
1553835077265.6201171875,30,-18.1500000000,A01A3A,5,1553835054000
1553835077265.6201171875,30,33.4500000000,A01BBE,5,1553835075000
1553835077281.2500000000,30,-14.4600000000,A01A3A,5,1553835054000
1553835077281.2500000000,30,29.6100000000,A01BBE,5,1553835075000
1553835077296.8798828125,30,-9.0700000000,A01A3A,5,1553835054000
1553835077296.8798828125,30,26.0700000000,A01BBE,5,1553835075000
1553835077312.5000000000,30,-2.7200000000,A01A3A,5,1553835054000
1553835077312.5000000000,30,22.8100000000,A01BBE,5,1553835075000
1553835077328.1201171875,30,3.6600000000,A01A3A,5,1553835054000
1553835077328.1201171875,30,19.8300000000,A01BBE,5,1553835075000
1553835077343.7500000000,30,9.2300000000,A01A3A,5,1553835054000
1553835077343.7500000000,30,17.1100000000,A01BBE,5,1553835075000
1553835077359.3798828125,30,13.4600000000,A01A3A,5,1553835054000
1553835077359.3798828125,30,14.6700000000,A01BBE,5,1553835075000
1553835077375.0000000000,30,16.1700000000,A01A3A,5,1553835054000
1553835077375.0000000000,30,12.4800000000,A01BBE,5,1553835075000
1553835077390.6201171875,30,17.4900000000,A01A3A,5,1553835054000
1553835077390.6201171875,30,10.5400000000,A01BBE,5,1553835075000
1553835077406.2500000000,30,17.6700000000,A01A3A,5,1553835054000
1553835077406.2500000000,30,8.8300000000,A01BBE,5,1553835075000
1553835077421.8798828125,30,16.9800000000,A01A3A,5,1553835054000
1553835077421.8798828125,30,7.3500000000,A01BBE,5,1553835075000
1553835077437.5000000000,30,15.6500000000,A01A3A,5,1553835054000
1553835077437.5000000000,30,6.0700000000,A01BBE,5,1553835075000
1553835077453.1201171875,30,13.9100000000,A01A3A,5,1553835054000
1553835077453.1201171875,30,4.9700000000,A01BBE,5,1553835075000
1553835077468.7500000000,30,11.9800000000,A01A3A,5,1553835054000
1553835077468.7500000000,30,4.0500000000,A01BBE,5,1553835075000
1553835077484.3798828125,30,10.0500000000,A01A3A,5,1553835054000
1553835077484.3798828125,30,3.2700000000,A01BBE,5,1553835075000
1553835077500.0000000000,30,8.2400000000,A01A3A,5,1553835054000
1553835077500.0000000000,30,2.6200000000,A01BBE,5,1553835075000
1553835077515.6201171875,30,6.5700000000,A01A3A,5,1553835054000
1553835077515.6201171875,30,2.0900000000,A01BBE,5,1553835075000
1553835077531.2500000000,30,4.9500000000,A01A3A,5,1553835054000
1553835077531.2500000000,30,1.6500000000,A01BBE,5,1553835075000
1553835077546.8798828125,30,3.2800000000,A01A3A,5,1553835054000
1553835077546.8798828125,30,1.3000000000,A01BBE,5,1553835075000
1553835077562.5000000000,30,1.5100000000,A01A3A,5,1553835054000
1553835077562.5000000000,30,1.0100000000,A01BBE,5,1553835075000
1553835077578.1201171875,30,-0.3200000000,A01A3A,5,1553835054000
1553835077578.1201171875,30,0.7900000000,A01BBE,5,1553835075000
1553835077593.7500000000,30,-2.1400000000,A01A3A,5,1553835054000
1553835077593.7500000000,30,0.6100000000,A01BBE,5,1553835075000
1553835077609.3798828125,30,-3.8500000000,A01A3A,5,1553835054000
1553835077609.3798828125,30,0.4700000000,A01BBE,5,1553835075000
1553835077625.0000000000,30,-5.3800000000,A01A3A,5,1553835054000
1553835077625.0000000000,30,0.3700000000,A01BBE,5,1553835075000
1553835077640.6201171875,30,-6.6300000000,A01A3A,5,1553835054000
1553835077640.6201171875,30,0.2900000000,A01BBE,5,1553835075000
1553835077656.2500000000,30,-7.5600000000,A01A3A,5,1553835054000
1553835077656.2500000000,30,0.2300000000,A01BBE,5,1553835075000
1553835077671.8798828125,30,-8.1700000000,A01A3A,5,1553835054000
1553835077671.8798828125,30,0.1800000000,A01BBE,5,1553835075000
1553835077687.5000000000,30,-8.5500000000,A01A3A,5,1553835054000
1553835077687.5000000000,30,0.1500000000,A01BBE,5,1553835075000
1553835077703.1201171875,30,-9.0100000000,A01A3A,5,1553835054000
1553835077703.1201171875,30,0.1400000000,A01BBE,5,1553835075000
1553835077718.7500000000,30,-9.9500000000,A01A3A,5,1553835054000
1553835077718.7500000000,30,0.1300000000,A01BBE,5,1553835075000
1553835077734.3798828125,30,-11.7300000000,A01A3A,5,1553835054000
1553835077734.3798828125,30,0.1400000000,A01BBE,5,1553835075000
1553835077750.0000000000,30,-14.4300000000,A01A3A,5,1553835054000
1553835077750.0000000000,30,0.1500000000,A01BBE,5,1553835075000
1553835077765.6201171875,30,-17.6900000000,A01A3A,5,1553835054000
1553835077765.6201171875,30,0.1700000000,A01BBE,5,1553835075000
1553835077781.2500000000,30,-20.6700000000,A01A3A,5,1553835054000
1553835077781.2500000000,30,0.1900000000,A01BBE,5,1553835075000
1553835077796.8798828125,30,-22.3300000000,A01A3A,5,1553835054000
1553835077796.8798828125,30,0.2200000000,A01BBE,5,1553835075000
1553835077812.5000000000,30,-21.8000000000,A01A3A,5,1553835054000
1553835077812.5000000000,30,0.2600000000,A01BBE,5,1553835075000
1553835077828.1201171875,30,-18.7700000000,A01A3A,5,1553835054000
1553835077828.1201171875,30,0.3000000000,A01BBE,5,1553835075000
1553835077843.7500000000,30,-13.6400000000,A01A3A,5,1553835054000
1553835077843.7500000000,30,0.3400000000,A01BBE,5,1553835075000
1553835077859.3798828125,30,-7.3700000000,A01A3A,5,1553835054000
1553835077859.3798828125,30,0.3800000000,A01BBE,5,1553835075000
1553835077875.0000000000,30,-1.1500000000,A01A3A,5,1553835054000
1553835077875.0000000000,30,0.4300000000,A01BBE,5,1553835075000
1553835077890.6201171875,30,4.0200000000,A01A3A,5,1553835054000
1553835077890.6201171875,30,0.4700000000,A01BBE,5,1553835075000
1553835077906.2500000000,30,7.6500000000,A01A3A,5,1553835054000
1553835077906.2500000000,30,0.5200000000,A01BBE,5,1553835075000
1553835077921.8798828125,30,9.8000000000,A01A3A,5,1553835054000
1553835077921.8798828125,30,0.5700000000,A01BBE,5,1553835075000
1553835077937.5000000000,30,10.8600000000,A01A3A,5,1553835054000
1553835077937.5000000000,30,0.6200000000,A01BBE,5,1553835075000
1553835077953.1201171875,30,11.3400000000,A01A3A,5,1553835054000
1553835077953.1201171875,30,0.6700000000,A01BBE,5,1553835075000
1553835077968.7500000000,30,11.5600000000,A01A3A,5,1553835054000
1553835077968.7500000000,30,0.7300000000,A01BBE,5,1553835075000
1553835077984.3798828125,30,11.5900000000,A01A3A,5,1553835054000
1553835077984.3798828125,30,0.7900000000,A01BBE,5,1553835075000
1553835078000.0000000000,30,11.3300000000,A01A3A,5,1553835054000
1553835078000.0000000000,30,0.8600000000,A01BBE,5,1553835075000
1553835078015.6201171875,30,10.7000000000,A01A3A,5,1553835054000
1553835078015.6201171875,30,0.9300000000,A01BBE,5,1553835075000
1553835078031.2500000000,30,9.7600000000,A01A3A,5,1553835054000
1553835078031.2500000000,30,1.0200000000,A01BBE,5,1553835075000
1553835078046.8798828125,30,8.7300000000,A01A3A,5,1553835054000
1553835078046.8798828125,30,1.1000000000,A01BBE,5,1553835075000
1553835078062.5000000000,30,7.8700000000,A01A3A,5,1553835054000
1553835078062.5000000000,30,1.2100000000,A01BBE,5,1553835075000
1553835078078.1201171875,30,7.3100000000,A01A3A,5,1553835054000
1553835078078.1201171875,30,1.3200000000,A01BBE,5,1553835075000
1553835078093.7500000000,30,6.9400000000,A01A3A,5,1553835054000
1553835078093.7500000000,30,1.4400000000,A01BBE,5,1553835075000
1553835078109.3798828125,30,6.5700000000,A01A3A,5,1553835054000
1553835078109.3798828125,30,1.5800000000,A01BBE,5,1553835075000
1553835078125.0000000000,30,5.9400000000,A01A3A,5,1553835054000
1553835078125.0000000000,30,1.7400000000,A01BBE,5,1553835075000
1553835078140.6201171875,30,4.9800000000,A01A3A,5,1553835054000
1553835078140.6201171875,30,1.9200000000,A01BBE,5,1553835075000
1553835078156.2500000000,30,3.7600000000,A01A3A,5,1553835054000
1553835078156.2500000000,30,2.1100000000,A01BBE,5,1553835075000
1553835078171.8798828125,30,2.4400000000,A01A3A,5,1553835054000
1553835078171.8798828125,30,2.3300000000,A01BBE,5,1553835075000
1553835078187.5000000000,30,1.1100000000,A01A3A,5,1553835054000
1553835078187.5000000000,30,2.5700000000,A01BBE,5,1553835075000
1553835078203.1201171875,30,-0.2500000000,A01A3A,5,1553835054000
1553835078203.1201171875,30,2.8300000000,A01BBE,5,1553835075000
1553835078218.7500000000,30,-1.8600000000,A01A3A,5,1553835054000
1553835078218.7500000000,30,3.1300000000,A01BBE,5,1553835075000
1553835078234.3798828125,30,-4.0000000000,A01A3A,5,1553835054000
1553835078234.3798828125,30,3.4500000000,A01BBE,5,1553835075000
1553835078250.0000000000,30,-6.8500000000,A01A3A,5,1553835054000
1553835078250.0000000000,30,3.8000000000,A01BBE,5,1553835075000
1553835078265.6201171875,30,-10.3700000000,A01A3A,5,1553835054000
1553835078265.6201171875,30,4.1900000000,A01BBE,5,1553835075000
1553835078281.2500000000,30,-14.2400000000,A01A3A,5,1553835054000
1553835078281.2500000000,30,4.6100000000,A01BBE,5,1553835075000
1553835078296.8798828125,30,-17.8400000000,A01A3A,5,1553835054000
1553835078296.8798828125,30,5.0700000000,A01BBE,5,1553835075000
1553835078312.5000000000,30,-20.4200000000,A01A3A,5,1553835054000
1553835078312.5000000000,30,5.5600000000,A01BBE,5,1553835075000
1553835078328.1201171875,30,-21.3000000000,A01A3A,5,1553835054000
1553835078328.1201171875,30,6.0900000000,A01BBE,5,1553835075000
1553835078343.7500000000,30,-20.0700000000,A01A3A,5,1553835054000
1553835078343.7500000000,30,6.6700000000,A01BBE,5,1553835075000
1553835078359.3798828125,30,-16.7800000000,A01A3A,5,1553835054000
1553835078359.3798828125,30,7.2800000000,A01BBE,5,1553835075000
1553835078375.0000000000,30,-11.9000000000,A01A3A,5,1553835054000
1553835078375.0000000000,30,7.9300000000,A01BBE,5,1553835075000
1553835078390.6201171875,30,-6.2300000000,A01A3A,5,1553835054000
1553835078390.6201171875,30,8.6400000000,A01BBE,5,1553835075000
1553835078406.2500000000,30,-0.5700000000,A01A3A,5,1553835054000
1553835078406.2500000000,30,9.3800000000,A01BBE,5,1553835075000
1553835078421.8798828125,30,4.5000000000,A01A3A,5,1553835054000
1553835078421.8798828125,30,10.1700000000,A01BBE,5,1553835075000
1553835078437.5000000000,30,8.7300000000,A01A3A,5,1553835054000
1553835078437.5000000000,30,11.0100000000,A01BBE,5,1553835075000
1553835078453.1201171875,30,12.1300000000,A01A3A,5,1553835054000
1553835078453.1201171875,30,11.8900000000,A01BBE,5,1553835075000
1553835078468.7500000000,30,14.7300000000,A01A3A,5,1553835054000
1553835078468.7500000000,30,12.8100000000,A01BBE,5,1553835075000
1553835078484.3798828125,30,16.5100000000,A01A3A,5,1553835054000
1553835078484.3798828125,30,13.7800000000,A01BBE,5,1553835075000
1553835078500.0000000000,30,17.3400000000,A01A3A,5,1553835054000
1553835078500.0000000000,30,14.8200000000,A01BBE,5,1553835075000
1553835078515.6201171875,30,17.1200000000,A01A3A,5,1553835054000
1553835078515.6201171875,30,15.9100000000,A01BBE,5,1553835075000
1553835078531.2500000000,30,15.9400000000,A01A3A,5,1553835054000
1553835078531.2500000000,30,17.0800000000,A01BBE,5,1553835075000
1553835078546.8798828125,30,14.1600000000,A01A3A,5,1553835054000
1553835078546.8798828125,30,18.2900000000,A01BBE,5,1553835075000
1553835078562.5000000000,30,12.2900000000,A01A3A,5,1553835054000
1553835078562.5000000000,30,19.5500000000,A01BBE,5,1553835075000
1553835078578.1201171875,30,10.8400000000,A01A3A,5,1553835054000
1553835078578.1201171875,30,20.8300000000,A01BBE,5,1553835075000
1553835078593.7500000000,30,10.0000000000,A01A3A,5,1553835054000
1553835078593.7500000000,30,22.0600000000,A01BBE,5,1553835075000
1553835078609.3798828125,30,9.5500000000,A01A3A,5,1553835054000
1553835078609.3798828125,30,23.1700000000,A01BBE,5,1553835075000
1553835078625.0000000000,30,9.0200000000,A01A3A,5,1553835054000
1553835078625.0000000000,30,24.0900000000,A01BBE,5,1553835075000
1553835078640.6201171875,30,7.8900000000,A01A3A,5,1553835054000
1553835078640.6201171875,30,24.6700000000,A01BBE,5,1553835075000
1553835078656.2500000000,30,5.9200000000,A01A3A,5,1553835054000
1553835078656.2500000000,30,24.7800000000,A01BBE,5,1553835075000
1553835078671.8798828125,30,3.2900000000,A01A3A,5,1553835054000
1553835078671.8798828125,30,24.3400000000,A01BBE,5,1553835075000
1553835078687.5000000000,30,0.4900000000,A01A3A,5,1553835054000
1553835078687.5000000000,30,23.2300000000,A01BBE,5,1553835075000
1553835078703.1201171875,30,-1.9100000000,A01A3A,5,1553835054000
1553835078703.1201171875,30,21.4000000000,A01BBE,5,1553835075000
1553835078718.7500000000,30,-3.5400000000,A01A3A,5,1553835054000
1553835078718.7500000000,30,18.8500000000,A01BBE,5,1553835075000
1553835078734.3798828125,30,-4.4900000000,A01A3A,5,1553835054000
1553835078734.3798828125,30,15.6200000000,A01BBE,5,1553835075000
1553835078750.0000000000,30,-5.1600000000,A01A3A,5,1553835054000
1553835078750.0000000000,30,11.8000000000,A01BBE,5,1553835075000
1553835078765.6201171875,30,-6.1500000000,A01A3A,5,1553835054000
1553835078765.6201171875,30,7.5600000000,A01BBE,5,1553835075000
1553835078781.2500000000,30,-7.9600000000,A01A3A,5,1553835054000
1553835078781.2500000000,30,3.0800000000,A01BBE,5,1553835075000
1553835078796.8798828125,30,-10.7800000000,A01A3A,5,1553835054000
1553835078796.8798828125,30,-1.4000000000,A01BBE,5,1553835075000
1553835078812.5000000000,30,-14.3800000000,A01A3A,5,1553835054000
1553835078812.5000000000,30,-5.6900000000,A01BBE,5,1553835075000
1553835078828.1201171875,30,-18.2100000000,A01A3A,5,1553835054000
1553835078828.1201171875,30,-9.5900000000,A01BBE,5,1553835075000
1553835078843.7500000000,30,-21.5400000000,A01A3A,5,1553835054000
1553835078843.7500000000,30,-12.9200000000,A01BBE,5,1553835075000
1553835078859.3798828125,30,-23.6200000000,A01A3A,5,1553835054000
1553835078859.3798828125,30,-15.5700000000,A01BBE,5,1553835075000
1553835078875.0000000000,30,-23.9000000000,A01A3A,5,1553835054000
1553835078875.0000000000,30,-17.4900000000,A01BBE,5,1553835075000
1553835078890.6201171875,30,-22.1800000000,A01A3A,5,1553835054000
1553835078890.6201171875,30,-18.6500000000,A01BBE,5,1553835075000
1553835078906.2500000000,30,-18.6000000000,A01A3A,5,1553835054000
1553835078906.2500000000,30,-19.0800000000,A01BBE,5,1553835075000
